x,y
0,-0.244
0.001,-0.242
0.002,-0.241
0.003,-0.241
0.004,-0.232
0.005,-0.226
0.006,-0.225
0.007,-0.234
0.008,-0.234
0.009,-0.224
0.01,-0.221
0.011,-0.227
0.012,-0.232
0.013,-0.237
0.014,-0.244
0.015,-0.237
0.016,-0.224
0.017,-0.227
0.018,-0.227
0.019,-0.228
0.02,-0.233
0.021,-0.226
0.022,-0.226
0.023,-0.211
0.024,-0.213
0.025,-0.224
0.026,-0.22
0.027,-0.216
0.028,-0.2
0.029,-0.197
0.03,-0.197
0.031,-0.209
0.032,-0.238
0.033,-0.252
0.034,-0.238
0.035,-0.227
0.036,-0.234
0.037,-0.255
0.038,-0.247
0.039,-0.231
0.04,-0.23
0.041,-0.22
0.042,-0.214
0.043,-0.214
0.044,-0.228
0.045,-0.225
0.046,-0.213
0.047,-0.201
0.048,-0.206
0.049,-0.228
0.05,-0.219
0.051,-0.215
0.052,-0.215
0.053,-0.222
0.054,-0.232
0.055,-0.228
0.056,-0.219
0.057,-0.221
0.058,-0.227
0.059,-0.227
0.06,-0.229
0.061,-0.232
0.062,-0.235
0.063,-0.224
0.064,-0.213
0.065,-0.216
0.066,-0.211
0.067,-0.212
0.068,-0.218
0.069,-0.211
0.07,-0.203
0.071,-0.201
0.072,-0.204
0.073,-0.231
0.074,-0.233
0.075,-0.217
0.076,-0.222
0.077,-0.225
0.078,-0.213
0.079,-0.208
0.08,-0.214
0.081,-0.211
0.082,-0.208
0.083,-0.208
0.084,-0.21
0.085,-0.215
0.086,-0.211
0.087,-0.204
0.088,-0.193
0.089,-0.177
0.09,-0.201
0.091,-0.19
0.092,-0.162
0.093,-0.193
0.094,-0.2
0.095,-0.195
0.096,-0.188
0.097,-0.194
0.098,-0.212
0.099,-0.192
0.1,-0.167
0.101,-0.162
0.102,-0.168
0.103,-0.162
0.104,-0.157
0.105,-0.166
0.106,-0.151
0.107,-0.146
0.108,-0.152
0.109,-0.146
0.11,-0.141
0.111,-0.142
0.112,-0.145
0.113,-0.161
0.114,-0.156
0.115,-0.139
0.116,-0.136
0.117,-0.137
0.118,-0.154
0.119,-0.135
0.12,-0.117
0.121,-0.124
0.122,-0.125
0.123,-0.139
0.124,-0.12
0.125,-0.091
0.126,-0.088
0.127,-0.089
0.128,-0.093
0.129,-0.077
0.13,-0.078
0.131,-0.09
0.132,-0.097
0.133,-0.099
0.134,-0.094
0.135,-0.102
0.136,-0.092
0.137,-0.092
0.138,-0.082
0.139,-0.075
0.14,-0.079
0.141,-0.067
0.142,-0.072
0.143,-0.059
0.144,-0.052
0.145,-0.051
0.146,-0.049
0.147,-0.047
0.148,-0.038
0.149,-0.034
0.15,-0.014
0.151,-0.019
0.152,-0.029
0.153,-0.037
0.154,-0.025
0.155,-0.011
0.156,-0.017
0.157,-0.021
0.158,-0.055
0.159,-0.065
0.16,-0.04
0.161,-0.007
0.162,-0.034
0.163,-0.051
0.164,-0.03
0.165,-0.037
0.166,-0.036
0.167,-0.02
0.168,0.001
0.169,0.011
0.17,0.005
0.171,-0.017
0.172,-0.024
0.173,-0.013
0.174,0.003
0.175,-0.013
0.176,-0.022
0.177,-0.021
0.178,-0.033
0.179,-0.034
0.18,-0.04
0.181,-0.018
0.182,-0.011
0.183,-0.011
0.184,0
0.185,-0.003
0.186,-0.013
0.187,-0.018
0.188,-0.018
0.189,-0.02
0.19,-0.022
0.191,-0.028
0.192,-0.022
0.193,-0.031
0.194,-0.041
0.195,-0.046
0.196,-0.046
0.197,-0.042
0.198,-0.038
0.199,-0.026
0.2,-0.035
0.201,-0.037
0.202,-0.035
0.203,-0.04
0.204,-0.045
0.205,-0.049
0.206,-0.04
0.207,-0.026
0.208,-0.029
0.209,-0.029
0.21,-0.033
0.211,-0.064
0.212,-0.054
0.213,-0.054
0.214,-0.06
0.215,-0.048
0.216,-0.065
0.217,-0.081
0.218,-0.08
0.219,-0.075
0.22,-0.083
0.221,-0.076
0.222,-0.074
0.223,-0.077
0.224,-0.074
0.225,-0.08
0.226,-0.084
0.227,-0.083
0.228,-0.083
0.229,-0.095
0.23,-0.08
0.231,-0.079
0.232,-0.092
0.233,-0.095
0.234,-0.086
0.235,-0.075
0.236,-0.098
0.237,-0.099
0.238,-0.09
0.239,-0.101
0.24,-0.106
0.241,-0.11
0.242,-0.116
0.243,-0.111
0.244,-0.102
0.245,-0.099
0.246,-0.112
0.247,-0.108
0.248,-0.086
0.249,-0.084
0.25,-0.102
0.251,-0.132
0.252,-0.12
0.253,-0.105
0.254,-0.112
0.255,-0.12
0.256,-0.146
0.257,-0.161
0.258,-0.137
0.259,-0.132
0.26,-0.142
0.261,-0.144
0.262,-0.15
0.263,-0.14
0.264,-0.13
0.265,-0.126
0.266,-0.131
0.267,-0.12
0.268,-0.117
0.269,-0.119
0.27,-0.124
0.271,-0.153
0.272,-0.161
0.273,-0.153
0.274,-0.146
0.275,-0.149
0.276,-0.16
0.277,-0.171
0.278,-0.165
0.279,-0.167
0.28,-0.157
0.281,-0.135
0.282,-0.141
0.283,-0.143
0.284,-0.151
0.285,-0.157
0.286,-0.16
0.287,-0.14
0.288,-0.126
0.289,-0.147
0.29,-0.146
0.291,-0.152
0.292,-0.163
0.293,-0.171
0.294,-0.172
0.295,-0.165
0.296,-0.183
0.297,-0.188
0.298,-0.172
0.299,-0.176
0.3,-0.172
0.301,-0.168
0.302,-0.172
0.303,-0.171
0.304,-0.167
0.305,-0.16
0.306,-0.161
0.307,-0.168
0.308,-0.191
0.309,-0.184
0.31,-0.162
0.311,-0.177
0.312,-0.2
0.313,-0.197
0.314,-0.186
0.315,-0.188
0.316,-0.184
0.317,-0.181
0.318,-0.184
0.319,-0.203
0.32,-0.194
0.321,-0.172
0.322,-0.19
0.323,-0.191
0.324,-0.17
0.325,-0.164
0.326,-0.168
0.327,-0.169
0.328,-0.178
0.329,-0.172
0.33,-0.174
0.331,-0.2
0.332,-0.204
0.333,-0.183
0.334,-0.165
0.335,-0.181
0.336,-0.171
0.337,-0.17
0.338,-0.2
0.339,-0.194
0.34,-0.186
0.341,-0.182
0.342,-0.178
0.343,-0.174
0.344,-0.173
0.345,-0.176
0.346,-0.176
0.347,-0.175
0.348,-0.179
0.349,-0.174
0.35,-0.178
0.351,-0.188
0.352,-0.186
0.353,-0.194
0.354,-0.194
0.355,-0.195
0.356,-0.2
0.357,-0.193
0.358,-0.195
0.359,-0.196
0.36,-0.192
0.361,-0.2
0.362,-0.195
0.363,-0.18
0.364,-0.181
0.365,-0.181
0.366,-0.182
0.367,-0.181
0.368,-0.181
0.369,-0.181
0.37,-0.178
0.371,-0.188
0.372,-0.191
0.373,-0.192
0.374,-0.203
0.375,-0.199
0.376,-0.198
0.377,-0.201
0.378,-0.198
0.379,-0.228
0.38,-0.23
0.381,-0.229
0.382,-0.217
0.383,-0.183
0.384,-0.191
0.385,-0.185
0.386,-0.183
0.387,-0.174
0.388,-0.184
0.389,-0.192
0.39,-0.181
0.391,-0.196
0.392,-0.194
0.393,-0.197
0.394,-0.193
0.395,-0.192
0.396,-0.203
0.397,-0.208
0.398,-0.194
0.399,-0.196
0.4,-0.206
0.401,-0.188
0.402,-0.185
0.403,-0.217
0.404,-0.234
0.405,-0.175
0.406,-0.151
0.407,-0.18
0.408,-0.184
0.409,-0.188
0.41,-0.185
0.411,-0.183
0.412,-0.186
0.413,-0.19
0.414,-0.195
0.415,-0.194
0.416,-0.19
0.417,-0.189
0.418,-0.188
0.419,-0.193
0.42,-0.18
0.421,-0.173
0.422,-0.192
0.423,-0.19
0.424,-0.173
0.425,-0.174
0.426,-0.188
0.427,-0.188
0.428,-0.193
0.429,-0.186
0.43,-0.172
0.431,-0.176
0.432,-0.177
0.433,-0.172
0.434,-0.176
0.435,-0.181
0.436,-0.193
0.437,-0.202
0.438,-0.186
0.439,-0.195
0.44,-0.201
0.441,-0.175
0.442,-0.175
0.443,-0.187
0.444,-0.183
0.445,-0.184
0.446,-0.174
0.447,-0.163
0.448,-0.175
0.449,-0.181
0.45,-0.174
0.451,-0.174
0.452,-0.179
0.453,-0.163
0.454,-0.184
0.455,-0.195
0.456,-0.184
0.457,-0.202
0.458,-0.182
0.459,-0.184
0.46,-0.19
0.461,-0.182
0.462,-0.188
0.463,-0.184
0.464,-0.168
0.465,-0.155
0.466,-0.155
0.467,-0.161
0.468,-0.169
0.469,-0.175
0.47,-0.177
0.471,-0.174
0.472,-0.186
0.473,-0.191
0.474,-0.163
0.475,-0.146
0.476,-0.153
0.477,-0.158
0.478,-0.149
0.479,-0.149
0.48,-0.148
0.481,-0.139
0.482,-0.143
0.483,-0.127
0.484,-0.136
0.485,-0.139
0.486,-0.118
0.487,-0.114
0.488,-0.118
0.489,-0.112
0.49,-0.105
0.491,-0.119
0.492,-0.092
0.493,-0.098
0.494,-0.101
0.495,-0.089
0.496,-0.115
0.497,-0.106
0.498,-0.101
0.499,-0.13
0.5,-0.133
0.501,-0.126
0.502,-0.128
0.503,-0.126
0.504,-0.128
0.505,-0.13
0.506,-0.138
0.507,-0.131
0.508,-0.129
0.509,-0.126
0.51,-0.137
0.511,-0.163
0.512,-0.157
0.513,-0.142
0.514,-0.115
0.515,-0.101
0.516,-0.111
0.517,-0.116
0.518,-0.107
0.519,-0.111
0.52,-0.111
0.521,-0.107
0.522,-0.118
0.523,-0.118
0.524,-0.118
0.525,-0.129
0.526,-0.14
0.527,-0.145
0.528,-0.147
0.529,-0.133
0.53,-0.137
0.531,-0.155
0.532,-0.163
0.533,-0.17
0.534,-0.175
0.535,-0.178
0.536,-0.179
0.537,-0.183
0.538,-0.18
0.539,-0.182
0.54,-0.182
0.541,-0.185
0.542,-0.182
0.543,-0.18
0.544,-0.181
0.545,-0.177
0.546,-0.182
0.547,-0.188
0.548,-0.185
0.549,-0.19
0.55,-0.214
0.551,-0.21
0.552,-0.189
0.553,-0.194
0.554,-0.209
0.555,-0.211
0.556,-0.218
0.557,-0.21
0.558,-0.215
0.559,-0.241
0.56,-0.226
0.561,-0.226
0.562,-0.218
0.563,-0.206
0.564,-0.193
0.565,-0.189
0.566,-0.209
0.567,-0.196
0.568,-0.194
0.569,-0.188
0.57,-0.172
0.571,-0.188
0.572,-0.203
0.573,-0.214
0.574,-0.22
0.575,-0.224
0.576,-0.22
0.577,-0.206
0.578,-0.198
0.579,-0.204
0.58,-0.214
0.581,-0.217
0.582,-0.212
0.583,-0.197
0.584,-0.203
0.585,-0.219
0.586,-0.209
0.587,-0.2
0.588,-0.2
0.589,-0.197
0.59,-0.202
0.591,-0.2
0.592,-0.2
0.593,-0.209
0.594,-0.207
0.595,-0.208
0.596,-0.218
0.597,-0.217
0.598,-0.217
0.599,-0.229
0.6,-0.233
0.601,-0.245
0.602,-0.26
0.603,-0.265
0.604,-0.274
0.605,-0.282
0.606,-0.292
0.607,-0.303
0.608,-0.318
0.609,-0.323
0.61,-0.332
0.611,-0.344
0.612,-0.358
0.613,-0.368
0.614,-0.363
0.615,-0.362
0.616,-0.352
0.617,-0.337
0.618,-0.31
0.619,-0.296
0.62,-0.273
0.621,-0.24
0.622,-0.211
0.623,-0.168
0.624,-0.132
0.625,-0.088
0.626,-0.049
0.627,-0.018
0.628,0.023
0.629,0.072
0.63,0.107
0.631,0.153
0.632,0.215
0.633,0.242
0.634,0.271
0.635,0.302
0.636,0.315
0.637,0.325
0.638,0.316
0.639,0.319
0.64,0.338
0.641,0.344
0.642,0.344
0.643,0.345
0.644,0.325
0.645,0.281
0.646,0.228
0.647,0.18
0.648,0.145
0.649,0.117
0.65,0.122
0.651,0.128
0.652,0.118
0.653,0.111
0.654,0.111
0.655,0.092
0.656,0.053
0.657,0.081
0.658,0.084
0.659,0.047
0.66,0.051
0.661,0.043
0.662,0.006
0.663,0.002
0.664,-0.001
0.665,-0.045
0.666,-0.043
0.667,-0.058
0.668,-0.071
0.669,-0.071
0.67,-0.085
0.671,-0.112
0.672,-0.159
0.673,-0.19
0.674,-0.234
0.675,-0.256
0.676,-0.286
0.677,-0.301
0.678,-0.311
0.679,-0.345
0.68,-0.363
0.681,-0.396
0.682,-0.427
0.683,-0.432
0.684,-0.443
0.685,-0.454
0.686,-0.473
0.687,-0.503
0.688,-0.512
0.689,-0.531
0.69,-0.534
0.691,-0.536
0.692,-0.561
0.693,-0.58
0.694,-0.595
0.695,-0.601
0.696,-0.616
0.697,-0.625
0.698,-0.618
0.699,-0.607
0.7,-0.609
0.701,-0.621
0.702,-0.611
0.703,-0.592
0.704,-0.571
0.705,-0.558
0.706,-0.546
0.707,-0.529
0.708,-0.502
0.709,-0.479
0.71,-0.468
0.711,-0.436
0.712,-0.419
0.713,-0.421
0.714,-0.415
0.715,-0.389
0.716,-0.351
0.717,-0.337
0.718,-0.344
0.719,-0.336
0.72,-0.306
0.721,-0.31
0.722,-0.305
0.723,-0.267
0.724,-0.259
0.725,-0.256
0.726,-0.23
0.727,-0.234
0.728,-0.243
0.729,-0.21
0.73,-0.216
0.731,-0.236
0.732,-0.216
0.733,-0.222
0.734,-0.227
0.735,-0.23
0.736,-0.242
0.737,-0.219
0.738,-0.207
0.739,-0.224
0.74,-0.213
0.741,-0.189
0.742,-0.211
0.743,-0.236
0.744,-0.216
0.745,-0.198
0.746,-0.2
0.747,-0.197
0.748,-0.193
0.749,-0.193
0.75,-0.206
0.751,-0.217
0.752,-0.205
0.753,-0.2
0.754,-0.205
0.755,-0.208
0.756,-0.226
0.757,-0.215
0.758,-0.191
0.759,-0.215
0.76,-0.225
0.761,-0.223
0.762,-0.232
0.763,-0.224
0.764,-0.201
0.765,-0.182
0.766,-0.193
0.767,-0.201
0.768,-0.199
0.769,-0.193
0.77,-0.203
0.771,-0.205
0.772,-0.197
0.773,-0.207
0.774,-0.212
0.775,-0.21
0.776,-0.214
0.777,-0.21
0.778,-0.222
0.779,-0.224
0.78,-0.192
0.781,-0.201
0.782,-0.205
0.783,-0.199
0.784,-0.205
0.785,-0.201
0.786,-0.193
0.787,-0.188
0.788,-0.203
0.789,-0.193
0.79,-0.196
0.791,-0.204
0.792,-0.193
0.793,-0.208
0.794,-0.206
0.795,-0.204
0.796,-0.206
0.797,-0.201
0.798,-0.199
0.799,-0.198
0.8,-0.195
0.801,-0.189
0.802,-0.187
0.803,-0.181
0.804,-0.191
0.805,-0.203
0.806,-0.207
0.807,-0.211
0.808,-0.216
0.809,-0.227
0.81,-0.206
0.811,-0.184
0.812,-0.165
0.813,-0.179
0.814,-0.198
0.815,-0.179
0.816,-0.186
0.817,-0.194
0.818,-0.2
0.819,-0.195
0.82,-0.189
0.821,-0.201
0.822,-0.203
0.823,-0.167
0.824,-0.154
0.825,-0.169
0.826,-0.16
0.827,-0.161
0.828,-0.172
0.829,-0.174
0.83,-0.166
0.831,-0.164
0.832,-0.148
0.833,-0.151
0.834,-0.166
0.835,-0.175
0.836,-0.185
0.837,-0.178
0.838,-0.178
0.839,-0.169
0.84,-0.159
0.841,-0.148
0.842,-0.149
0.843,-0.157
0.844,-0.139
0.845,-0.13
0.846,-0.129
0.847,-0.136
0.848,-0.149
0.849,-0.137
0.85,-0.13
0.851,-0.131
0.852,-0.127
0.853,-0.124
0.854,-0.117
0.855,-0.114
0.856,-0.112
0.857,-0.104
0.858,-0.104
0.859,-0.102
0.86,-0.093
0.861,-0.089
0.862,-0.085
0.863,-0.068
0.864,-0.061
0.865,-0.088
0.866,-0.086
0.867,-0.074
0.868,-0.071
0.869,-0.061
0.87,-0.065
0.871,-0.061
0.872,-0.059
0.873,-0.055
0.874,-0.058
0.875,-0.056
0.876,-0.053
0.877,-0.064
0.878,-0.057
0.879,-0.05
0.88,-0.038
0.881,-0.042
0.882,-0.021
0.883,0.025
0.884,0.017
0.885,-0.017
0.886,-0.038
0.887,-0.037
0.888,-0.013
0.889,0.015
0.89,0.009
0.891,0.004
0.892,0
0.893,-0.004
0.894,-0.004
0.895,-0.003
0.896,0.001
0.897,0.005
0.898,0.008
0.899,0.007
0.9,0.027
0.901,0.029
0.902,0.041
0.903,0.04
0.904,0.027
0.905,0.02
0.906,0.008
0.907,0.025
0.908,0.029
0.909,0.034
0.91,0.038
0.911,0.04
0.912,0.034
0.913,0.01
0.914,0.004
0.915,0.012
0.916,0.008
0.917,0.021
0.918,0.058
0.919,0.051
0.92,0.045
0.921,0.071
0.922,0.07
0.923,0.059
0.924,0.045
0.925,0.027
0.926,0.029
0.927,0.041
0.928,0.04
0.929,0.033
0.93,0.044
0.931,0.045
0.932,0.036
0.933,0.03
0.934,0.004
0.935,-0.001
0.936,0.015
0.937,0.021
0.938,0.025
0.939,0.033
0.94,0.035
0.941,0.025
0.942,0.025
0.943,0.022
0.944,0.019
0.945,0.021
0.946,0.017
0.947,0.019
0.948,0.026
0.949,0.017
0.95,-0.021
0.951,-0.013
0.952,0.008
0.953,-0.011
0.954,-0.017
0.955,-0.028
0.956,-0.034
0.957,-0.028
0.958,-0.03
0.959,-0.034
0.96,-0.03
0.961,-0.034
0.962,-0.034
0.963,-0.033
0.964,-0.034
0.965,-0.032
0.966,-0.033
0.967,-0.048
0.968,-0.051
0.969,-0.041
0.97,-0.051
0.971,-0.059
0.972,-0.054
0.973,-0.059
0.974,-0.089
0.975,-0.098
0.976,-0.07
0.977,-0.059
0.978,-0.06
0.979,-0.042
0.98,-0.069
0.981,-0.098
0.982,-0.084
0.983,-0.069
0.984,-0.056
0.985,-0.081
0.986,-0.049
0.987,-0.033
0.988,-0.077
0.989,-0.091
0.99,-0.099
0.991,-0.098
0.992,-0.098
0.993,-0.091
0.994,-0.098
0.995,-0.098
0.996,-0.089
0.997,-0.086
0.998,-0.099
0.999,-0.113
1,-0.105
1.001,-0.108
1.002,-0.096
1.003,-0.092
1.004,-0.097
1.005,-0.093
1.006,-0.092
1.007,-0.105
1.008,-0.113
1.009,-0.109
1.01,-0.11
1.011,-0.103
1.012,-0.113
1.013,-0.118
1.014,-0.12
1.015,-0.126
1.016,-0.13
1.017,-0.135
1.018,-0.129
1.019,-0.112
1.02,-0.117
1.021,-0.126
1.022,-0.122
1.023,-0.126
1.024,-0.13
1.025,-0.118
1.026,-0.104
1.027,-0.124
1.028,-0.142
1.029,-0.13
1.03,-0.132
1.031,-0.133
1.032,-0.122
1.033,-0.153
1.034,-0.175
1.035,-0.172
1.036,-0.168
1.037,-0.175
1.038,-0.169
1.039,-0.146
1.04,-0.136
1.041,-0.145
1.042,-0.153
1.043,-0.148
1.044,-0.166
1.045,-0.162
1.046,-0.152
1.047,-0.166
1.048,-0.153
1.049,-0.131
1.05,-0.153
1.051,-0.173
1.052,-0.167
1.053,-0.155
1.054,-0.159
1.055,-0.174
1.056,-0.176
1.057,-0.162
1.058,-0.166
1.059,-0.174
1.06,-0.174
1.061,-0.172
1.062,-0.172
1.063,-0.175
1.064,-0.148
1.065,-0.143
1.066,-0.158
1.067,-0.161
1.068,-0.169
1.069,-0.172
1.07,-0.174
1.071,-0.172
1.072,-0.178
1.073,-0.182
1.074,-0.181
1.075,-0.184
1.076,-0.185
1.077,-0.171
1.078,-0.165
1.079,-0.175
1.08,-0.175
1.081,-0.172
1.082,-0.172
1.083,-0.179
1.084,-0.177
1.085,-0.168
1.086,-0.163
1.087,-0.151
1.088,-0.154
1.089,-0.169
1.09,-0.154
1.091,-0.165
1.092,-0.19
1.093,-0.189
1.094,-0.179
1.095,-0.17
1.096,-0.191
1.097,-0.183
1.098,-0.182
1.099,-0.185
1.1,-0.181
1.101,-0.196
1.102,-0.174
1.103,-0.177
1.104,-0.196
1.105,-0.197
1.106,-0.181
1.107,-0.18
1.108,-0.193
1.109,-0.185
1.11,-0.173
1.111,-0.159
1.112,-0.158
1.113,-0.169
1.114,-0.178
1.115,-0.191
1.116,-0.194
1.117,-0.181
1.118,-0.192
1.119,-0.193
1.12,-0.189
1.121,-0.183
1.122,-0.178
1.123,-0.186
1.124,-0.167
1.125,-0.146
1.126,-0.151
1.127,-0.171
1.128,-0.177
1.129,-0.177
1.13,-0.184
1.131,-0.166
1.132,-0.149
1.133,-0.169
1.134,-0.185
1.135,-0.185
1.136,-0.196
1.137,-0.188
1.138,-0.193
1.139,-0.202
1.14,-0.172
1.141,-0.162
1.142,-0.168
1.143,-0.172
1.144,-0.171
1.145,-0.16
1.146,-0.172
1.147,-0.193
1.148,-0.19
1.149,-0.19
1.15,-0.182
1.151,-0.174
1.152,-0.171
1.153,-0.175
1.154,-0.187
1.155,-0.173
1.156,-0.175
1.157,-0.176
1.158,-0.179
1.159,-0.195
1.16,-0.184
1.161,-0.174
1.162,-0.168
1.163,-0.169
1.164,-0.163
1.165,-0.182
1.166,-0.187
1.167,-0.167
1.168,-0.174
1.169,-0.184
1.17,-0.181
1.171,-0.164
1.172,-0.181
1.173,-0.186
1.174,-0.177
1.175,-0.177
1.176,-0.173
1.177,-0.163
1.178,-0.167
1.179,-0.18
1.18,-0.179
1.181,-0.169
1.182,-0.157
1.183,-0.181
1.184,-0.196
1.185,-0.189
1.186,-0.179
1.187,-0.178
1.188,-0.157
1.189,-0.162
1.19,-0.192
1.191,-0.186
1.192,-0.201
1.193,-0.181
1.194,-0.17
1.195,-0.182
1.196,-0.181
1.197,-0.178
1.198,-0.166
1.199,-0.161
1.2,-0.165
1.201,-0.165
1.202,-0.164
1.203,-0.155
1.204,-0.14
1.205,-0.152
1.206,-0.151
1.207,-0.149
1.208,-0.159
1.209,-0.157
1.21,-0.18
1.211,-0.17
1.212,-0.15
1.213,-0.178
1.214,-0.186
1.215,-0.174
1.216,-0.162
1.217,-0.157
1.218,-0.147
1.219,-0.16
1.22,-0.179
1.221,-0.167
1.222,-0.154
1.223,-0.151
1.224,-0.15
1.225,-0.144
1.226,-0.137
1.227,-0.141
1.228,-0.133
1.229,-0.126
1.23,-0.146
1.231,-0.142
1.232,-0.129
1.233,-0.129
1.234,-0.126
1.235,-0.124
1.236,-0.127
1.237,-0.122
1.238,-0.111
1.239,-0.132
1.24,-0.153
1.241,-0.127
1.242,-0.111
1.243,-0.126
1.244,-0.133
1.245,-0.133
1.246,-0.131
1.247,-0.111
1.248,-0.108
1.249,-0.131
1.25,-0.138
1.251,-0.141
1.252,-0.131
1.253,-0.131
1.254,-0.139
1.255,-0.127
1.256,-0.11
1.257,-0.104
1.258,-0.116
1.259,-0.115
1.26,-0.111
1.261,-0.105
1.262,-0.108
1.263,-0.112
1.264,-0.092
1.265,-0.101
1.266,-0.107
1.267,-0.111
1.268,-0.135
1.269,-0.129
1.27,-0.117
1.271,-0.149
1.272,-0.171
1.273,-0.166
1.274,-0.174
1.275,-0.184
1.276,-0.184
1.277,-0.185
1.278,-0.193
1.279,-0.192
1.28,-0.192
1.281,-0.191
1.282,-0.177
1.283,-0.178
1.284,-0.168
1.285,-0.154
1.286,-0.174
1.287,-0.201
1.288,-0.201
1.289,-0.196
1.29,-0.202
1.291,-0.207
1.292,-0.211
1.293,-0.215
1.294,-0.216
1.295,-0.211
1.296,-0.221
1.297,-0.207
1.298,-0.197
1.299,-0.209
1.3,-0.205
1.301,-0.207
1.302,-0.203
1.303,-0.211
1.304,-0.232
1.305,-0.198
1.306,-0.176
1.307,-0.188
1.308,-0.197
1.309,-0.211
1.31,-0.245
1.311,-0.24
1.312,-0.174
1.313,-0.167
1.314,-0.201
1.315,-0.196
1.316,-0.197
1.317,-0.209
1.318,-0.202
1.319,-0.199
1.32,-0.195
1.321,-0.194
1.322,-0.197
1.323,-0.194
1.324,-0.191
1.325,-0.179
1.326,-0.178
1.327,-0.167
1.328,-0.166
1.329,-0.179
1.33,-0.172
1.331,-0.199
1.332,-0.223
1.333,-0.209
1.334,-0.191
1.335,-0.191
1.336,-0.2
1.337,-0.2
1.338,-0.195
1.339,-0.197
1.34,-0.21
1.341,-0.212
1.342,-0.211
1.343,-0.217
1.344,-0.228
1.345,-0.233
1.346,-0.238
1.347,-0.261
1.348,-0.272
1.349,-0.287
1.35,-0.307
1.351,-0.322
1.352,-0.344
1.353,-0.367
1.354,-0.378
1.355,-0.384
1.356,-0.397
1.357,-0.39
1.358,-0.378
1.359,-0.377
1.36,-0.365
1.361,-0.347
1.362,-0.324
1.363,-0.305
1.364,-0.282
1.365,-0.249
1.366,-0.217
1.367,-0.182
1.368,-0.147
1.369,-0.122
1.37,-0.094
1.371,-0.058
1.372,-0.018
1.373,0.033
1.374,0.087
1.375,0.133
1.376,0.182
1.377,0.229
1.378,0.267
1.379,0.3
1.38,0.283
1.381,0.274
1.382,0.302
1.383,0.317
1.384,0.338
1.385,0.362
1.386,0.354
1.387,0.335
1.388,0.327
1.389,0.272
1.39,0.213
1.391,0.202
1.392,0.195
1.393,0.162
1.394,0.119
1.395,0.104
1.396,0.114
1.397,0.152
1.398,0.163
1.399,0.143
1.4,0.13
1.401,0.121
1.402,0.11
1.403,0.095
1.404,0.096
1.405,0.073
1.406,0.036
1.407,0.014
1.408,0.002
1.409,-0.019
1.41,-0.037
1.411,-0.055
1.412,-0.073
1.413,-0.102
1.414,-0.131
1.415,-0.145
1.416,-0.175
1.417,-0.211
1.418,-0.232
1.419,-0.235
1.42,-0.271
1.421,-0.313
1.422,-0.338
1.423,-0.332
1.424,-0.333
1.425,-0.353
1.426,-0.361
1.427,-0.424
1.428,-0.485
1.429,-0.5
1.43,-0.492
1.431,-0.507
1.432,-0.517
1.433,-0.544
1.434,-0.577
1.435,-0.557
1.436,-0.57
1.437,-0.593
1.438,-0.609
1.439,-0.608
1.44,-0.607
1.441,-0.61
1.442,-0.619
1.443,-0.625
1.444,-0.613
1.445,-0.617
1.446,-0.602
1.447,-0.605
1.448,-0.613
1.449,-0.588
1.45,-0.577
1.451,-0.559
1.452,-0.541
1.453,-0.523
1.454,-0.5
1.455,-0.481
1.456,-0.459
1.457,-0.432
1.458,-0.418
1.459,-0.406
1.46,-0.382
1.461,-0.358
1.462,-0.337
1.463,-0.321
1.464,-0.308
1.465,-0.3
1.466,-0.285
1.467,-0.271
1.468,-0.263
1.469,-0.246
1.47,-0.241
1.471,-0.242
1.472,-0.242
1.473,-0.238
1.474,-0.241
1.475,-0.244
1.476,-0.226
1.477,-0.237
1.478,-0.242
1.479,-0.232
1.48,-0.231
1.481,-0.227
1.482,-0.201
1.483,-0.18
1.484,-0.202
1.485,-0.208
1.486,-0.229
1.487,-0.229
1.488,-0.191
1.489,-0.204
1.49,-0.215
1.491,-0.218
1.492,-0.22
1.493,-0.202
1.494,-0.206
1.495,-0.203
1.496,-0.203
1.497,-0.218
1.498,-0.22
1.499,-0.212
1.5,-0.216
1.501,-0.235
1.502,-0.222
1.503,-0.2
1.504,-0.199
1.505,-0.206
1.506,-0.21
1.507,-0.213
1.508,-0.21
1.509,-0.203
1.51,-0.207
1.511,-0.216
1.512,-0.223
1.513,-0.224
1.514,-0.22
1.515,-0.229
1.516,-0.223
1.517,-0.211
1.518,-0.218
1.519,-0.227
1.52,-0.23
1.521,-0.22
1.522,-0.206
1.523,-0.183
1.524,-0.194
1.525,-0.206
1.526,-0.216
1.527,-0.222
1.528,-0.196
1.529,-0.211
1.53,-0.21
1.531,-0.206
1.532,-0.209
1.533,-0.189
1.534,-0.201
1.535,-0.22
1.536,-0.214
1.537,-0.216
1.538,-0.224
1.539,-0.212
1.54,-0.21
1.541,-0.217
1.542,-0.224
1.543,-0.2
1.544,-0.172
1.545,-0.181
1.546,-0.194
1.547,-0.201
1.548,-0.2
1.549,-0.199
1.55,-0.197
1.551,-0.197
1.552,-0.199
1.553,-0.199
1.554,-0.206
1.555,-0.222
1.556,-0.213
1.557,-0.202
1.558,-0.204
1.559,-0.197
1.56,-0.197
1.561,-0.199
1.562,-0.194
1.563,-0.189
1.564,-0.191
1.565,-0.188
1.566,-0.185
1.567,-0.184
1.568,-0.179
1.569,-0.182
1.57,-0.188
1.571,-0.189
1.572,-0.185
1.573,-0.186
1.574,-0.193
1.575,-0.196
1.576,-0.191
1.577,-0.193
1.578,-0.184
1.579,-0.17
1.58,-0.18
1.581,-0.195
1.582,-0.163
1.583,-0.143
1.584,-0.172
1.585,-0.173
1.586,-0.164
1.587,-0.146
1.588,-0.167
1.589,-0.17
1.59,-0.147
1.591,-0.162
1.592,-0.145
1.593,-0.138
1.594,-0.132
1.595,-0.132
1.596,-0.118
1.597,-0.117
1.598,-0.153
1.599,-0.134
1.6,-0.115
1.601,-0.102
1.602,-0.096
1.603,-0.128
1.604,-0.136
1.605,-0.118
1.606,-0.112
1.607,-0.109
1.608,-0.107
1.609,-0.113
1.61,-0.102
1.611,-0.099
1.612,-0.103
1.613,-0.093
1.614,-0.099
1.615,-0.1
1.616,-0.097
1.617,-0.094
1.618,-0.085
1.619,-0.085
1.62,-0.07
1.621,-0.06
1.622,-0.059
1.623,-0.058
1.624,-0.071
1.625,-0.087
1.626,-0.064
1.627,-0.024
1.628,-0.035
1.629,-0.036
1.63,-0.038
1.631,-0.057
1.632,-0.059
1.633,-0.037
1.634,-0.034
1.635,-0.03
1.636,-0.034
1.637,-0.053
1.638,-0.021
1.639,-0.028
1.64,-0.045
1.641,-0.031
1.642,-0.021
1.643,-0.009
1.644,-0.017
1.645,-0.036
1.646,-0.043
1.647,-0.033
1.648,-0.008
1.649,0.016
1.65,0.003
1.651,-0.015
1.652,-0.004
1.653,0.005
1.654,-0.003
1.655,-0.014
1.656,-0.011
1.657,-0.002
1.658,0.005
1.659,0.01
1.66,0.009
1.661,0.015
1.662,0.019
1.663,0.023
1.664,0.012
1.665,0.018
1.666,0.017
1.667,0.018
1.668,0.036
1.669,0.026
1.67,0.026
1.671,0.02
1.672,0.014
1.673,0.013
1.674,0.005
1.675,0.004
1.676,-0.004
1.677,-0.001
1.678,0.006
1.679,0.011
1.68,0.006
1.681,-0.005
1.682,0.003
1.683,0.017
1.684,0.022
1.685,0.016
1.686,0.003
1.687,0.007
1.688,0.013
1.689,0.003
1.69,-0.007
1.691,-0.015
1.692,-0.011
1.693,-0.007
1.694,-0.013
1.695,-0.024
1.696,-0.026
1.697,-0.039
1.698,-0.041
1.699,-0.021
1.7,-0.021
1.701,-0.001
1.702,0.007
1.703,-0.024
1.704,-0.025
1.705,-0.009
1.706,-0.013
1.707,-0.043
1.708,-0.043
1.709,-0.018
1.71,-0.029
1.711,-0.045
1.712,-0.054
1.713,-0.06
1.714,-0.062
1.715,-0.043
1.716,-0.037
1.717,-0.065
1.718,-0.07
1.719,-0.047
1.72,-0.041
1.721,-0.062
1.722,-0.05
1.723,-0.054
1.724,-0.068
1.725,-0.043
1.726,-0.052
1.727,-0.056
1.728,-0.052
1.729,-0.065
1.73,-0.067
1.731,-0.067
1.732,-0.069
1.733,-0.069
1.734,-0.07
1.735,-0.076
1.736,-0.082
1.737,-0.086
1.738,-0.08
1.739,-0.07
1.74,-0.077
1.741,-0.081
1.742,-0.081
1.743,-0.077
1.744,-0.076
1.745,-0.086
1.746,-0.095
1.747,-0.092
1.748,-0.095
1.749,-0.108
1.75,-0.117
1.751,-0.13
1.752,-0.121
1.753,-0.123
1.754,-0.144
1.755,-0.136
1.756,-0.121
1.757,-0.127
1.758,-0.135
1.759,-0.108
1.76,-0.102
1.761,-0.092
1.762,-0.086
1.763,-0.114
1.764,-0.118
1.765,-0.12
1.766,-0.116
1.767,-0.122
1.768,-0.118
1.769,-0.119
1.77,-0.117
1.771,-0.114
1.772,-0.131
1.773,-0.114
1.774,-0.107
1.775,-0.116
1.776,-0.132
1.777,-0.15
1.778,-0.122
1.779,-0.099
1.78,-0.11
1.781,-0.116
1.782,-0.113
1.783,-0.103
1.784,-0.103
1.785,-0.109
1.786,-0.119
1.787,-0.108
1.788,-0.092
1.789,-0.126
1.79,-0.14
1.791,-0.136
1.792,-0.141
1.793,-0.15
1.794,-0.164
1.795,-0.146
1.796,-0.129
1.797,-0.127
1.798,-0.128
1.799,-0.134
1.8,-0.133
1.801,-0.123
1.802,-0.112
1.803,-0.115
1.804,-0.127
1.805,-0.12
1.806,-0.107
1.807,-0.118
1.808,-0.127
1.809,-0.133
1.81,-0.13
1.811,-0.12
1.812,-0.132
1.813,-0.129
1.814,-0.12
1.815,-0.121
1.816,-0.114
1.817,-0.117
1.818,-0.133
1.819,-0.135
1.82,-0.137
1.821,-0.146
1.822,-0.114
1.823,-0.099
1.824,-0.128
1.825,-0.109
1.826,-0.082
1.827,-0.078
1.828,-0.097
1.829,-0.113
1.83,-0.1
1.831,-0.105
1.832,-0.111
1.833,-0.115
1.834,-0.123
1.835,-0.126
1.836,-0.128
1.837,-0.124
1.838,-0.13
1.839,-0.115
1.84,-0.104
1.841,-0.111
1.842,-0.097
1.843,-0.091
1.844,-0.097
1.845,-0.091
1.846,-0.1
1.847,-0.099
1.848,-0.084
1.849,-0.088
1.85,-0.103
1.851,-0.106
1.852,-0.112
1.853,-0.107
1.854,-0.11
1.855,-0.102
1.856,-0.091
1.857,-0.124
1.858,-0.118
1.859,-0.106
1.86,-0.104
1.861,-0.087
1.862,-0.086
1.863,-0.088
1.864,-0.1
1.865,-0.094
1.866,-0.1
1.867,-0.103
1.868,-0.093
1.869,-0.101
1.87,-0.087
1.871,-0.115
1.872,-0.131
1.873,-0.108
1.874,-0.108
1.875,-0.104
1.876,-0.108
1.877,-0.105
1.878,-0.102
1.879,-0.123
1.88,-0.142
1.881,-0.128
1.882,-0.106
1.883,-0.1
1.884,-0.109
1.885,-0.114
1.886,-0.107
1.887,-0.098
1.888,-0.096
1.889,-0.099
1.89,-0.097
1.891,-0.106
1.892,-0.114
1.893,-0.127
1.894,-0.142
1.895,-0.125
1.896,-0.104
1.897,-0.124
1.898,-0.139
1.899,-0.15
1.9,-0.151
1.901,-0.126
1.902,-0.11
1.903,-0.117
1.904,-0.123
1.905,-0.117
1.906,-0.142
1.907,-0.111
1.908,-0.093
1.909,-0.119
1.91,-0.103
1.911,-0.102
1.912,-0.105
1.913,-0.115
1.914,-0.124
1.915,-0.137
1.916,-0.126
1.917,-0.107
1.918,-0.111
1.919,-0.115
1.92,-0.114
1.921,-0.102
1.922,-0.103
1.923,-0.113
1.924,-0.109
1.925,-0.103
1.926,-0.124
1.927,-0.125
1.928,-0.117
1.929,-0.13
1.93,-0.121
1.931,-0.113
1.932,-0.103
1.933,-0.099
1.934,-0.124
1.935,-0.126
1.936,-0.122
1.937,-0.136
1.938,-0.101
1.939,-0.107
1.94,-0.128
1.941,-0.133
1.942,-0.14
1.943,-0.129
1.944,-0.131
1.945,-0.105
1.946,-0.084
1.947,-0.098
1.948,-0.098
1.949,-0.082
1.95,-0.088
1.951,-0.086
1.952,-0.092
1.953,-0.1
1.954,-0.091
1.955,-0.092
1.956,-0.091
1.957,-0.092
1.958,-0.085
1.959,-0.069
1.96,-0.053
1.961,-0.044
1.962,-0.038
1.963,-0.037
1.964,-0.039
1.965,-0.034
1.966,-0.034
1.967,-0.04
1.968,-0.04
1.969,-0.04
1.97,-0.049
1.971,-0.058
1.972,-0.055
1.973,-0.053
1.974,-0.048
1.975,-0.03
1.976,-0.059
1.977,-0.084
1.978,-0.066
1.979,-0.088
1.98,-0.096
1.981,-0.077
1.982,-0.058
1.983,-0.031
1.984,-0.019
1.985,-0.029
1.986,-0.018
1.987,-0.007
1.988,-0.042
1.989,-0.041
1.99,-0.045
1.991,-0.04
1.992,-0.038
1.993,-0.066
1.994,-0.059
1.995,-0.091
1.996,-0.088
1.997,-0.068
1.998,-0.082
1.999,-0.073
2,-0.081
2.001,-0.093
2.002,-0.102
2.003,-0.087
2.004,-0.082
2.005,-0.088
2.006,-0.088
2.007,-0.09
2.008,-0.101
2.009,-0.112
2.01,-0.087
2.011,-0.086
2.012,-0.104
2.013,-0.119
2.014,-0.106
2.015,-0.101
2.016,-0.117
2.017,-0.117
2.018,-0.116
2.019,-0.12
2.02,-0.122
2.021,-0.113
2.022,-0.12
2.023,-0.12
2.024,-0.097
2.025,-0.084
2.026,-0.089
2.027,-0.097
2.028,-0.112
2.029,-0.122
2.03,-0.134
2.031,-0.135
2.032,-0.131
2.033,-0.124
2.034,-0.103
2.035,-0.107
2.036,-0.096
2.037,-0.094
2.038,-0.12
2.039,-0.12
2.04,-0.114
2.041,-0.122
2.042,-0.115
2.043,-0.105
2.044,-0.105
2.045,-0.106
2.046,-0.11
2.047,-0.112
2.048,-0.124
2.049,-0.116
2.05,-0.112
2.051,-0.127
2.052,-0.121
2.053,-0.124
2.054,-0.128
2.055,-0.12
2.056,-0.131
2.057,-0.134
2.058,-0.115
2.059,-0.117
2.06,-0.104
2.061,-0.103
2.062,-0.116
2.063,-0.105
2.064,-0.108
2.065,-0.106
2.066,-0.097
2.067,-0.089
2.068,-0.099
2.069,-0.098
2.07,-0.114
2.071,-0.168
2.072,-0.159
2.073,-0.159
2.074,-0.181
2.075,-0.181
2.076,-0.22
2.077,-0.239
2.078,-0.231
2.079,-0.244
2.08,-0.261
2.081,-0.263
2.082,-0.277
2.083,-0.288
2.084,-0.289
2.085,-0.283
2.086,-0.258
2.087,-0.258
2.088,-0.276
2.089,-0.266
2.09,-0.245
2.091,-0.226
2.092,-0.203
2.093,-0.178
2.094,-0.149
2.095,-0.119
2.096,-0.086
2.097,-0.081
2.098,-0.036
2.099,0.041
2.1,0.091
2.101,0.14
2.102,0.186
2.103,0.234
2.104,0.268
2.105,0.297
2.106,0.329
2.107,0.351
2.108,0.357
2.109,0.362
2.11,0.368
2.111,0.36
2.112,0.367
2.113,0.398
2.114,0.395
2.115,0.386
2.116,0.362
2.117,0.307
2.118,0.271
2.119,0.242
2.12,0.216
2.121,0.184
2.122,0.191
2.123,0.214
2.124,0.203
2.125,0.208
2.126,0.222
2.127,0.188
2.128,0.141
2.129,0.128
2.13,0.113
2.131,0.099
2.132,0.089
2.133,0.076
2.134,0.055
2.135,-0.001
2.136,-0.006
2.137,-0.011
2.138,-0.037
2.139,-0.048
2.14,-0.069
2.141,-0.07
2.142,-0.084
2.143,-0.094
2.144,-0.11
2.145,-0.164
2.146,-0.211
2.147,-0.217
2.148,-0.231
2.149,-0.253
2.15,-0.272
2.151,-0.303
2.152,-0.327
2.153,-0.347
2.154,-0.365
2.155,-0.391
2.156,-0.404
2.157,-0.423
2.158,-0.426
2.159,-0.427
2.16,-0.445
2.161,-0.456
2.162,-0.472
2.163,-0.481
2.164,-0.485
2.165,-0.49
2.166,-0.501
2.167,-0.498
2.168,-0.506
2.169,-0.526
2.17,-0.54
2.171,-0.549
2.172,-0.559
2.173,-0.549
2.174,-0.533
2.175,-0.545
2.176,-0.541
2.177,-0.535
2.178,-0.509
2.179,-0.481
2.18,-0.466
2.181,-0.447
2.182,-0.449
2.183,-0.439
2.184,-0.425
2.185,-0.389
2.186,-0.344
2.187,-0.34
2.188,-0.34
2.189,-0.312
2.19,-0.296
2.191,-0.311
2.192,-0.292
2.193,-0.271
2.194,-0.269
2.195,-0.247
2.196,-0.24
2.197,-0.224
2.198,-0.206
2.199,-0.214
2.2,-0.195
2.201,-0.182
2.202,-0.18
2.203,-0.186
2.204,-0.202
2.205,-0.178
2.206,-0.159
2.207,-0.157
2.208,-0.158
2.209,-0.166
2.21,-0.17
2.211,-0.18
2.212,-0.179
2.213,-0.159
2.214,-0.162
2.215,-0.173
2.216,-0.169
2.217,-0.157
2.218,-0.148
2.219,-0.16
2.22,-0.16
2.221,-0.148
2.222,-0.142
2.223,-0.135
2.224,-0.154
2.225,-0.179
2.226,-0.165
2.227,-0.148
2.228,-0.152
2.229,-0.149
2.23,-0.145
2.231,-0.153
2.232,-0.162
2.233,-0.146
2.234,-0.162
2.235,-0.186
2.236,-0.177
2.237,-0.165
2.238,-0.16
2.239,-0.16
2.24,-0.163
2.241,-0.151
2.242,-0.141
2.243,-0.145
2.244,-0.133
2.245,-0.17
2.246,-0.172
2.247,-0.143
2.248,-0.145
2.249,-0.13
2.25,-0.144
2.251,-0.154
2.252,-0.149
2.253,-0.156
2.254,-0.168
2.255,-0.167
2.256,-0.162
2.257,-0.158
2.258,-0.145
2.259,-0.15
2.26,-0.151
2.261,-0.146
2.262,-0.145
2.263,-0.136
2.264,-0.123
2.265,-0.13
2.266,-0.132
2.267,-0.136
2.268,-0.156
2.269,-0.16
2.27,-0.171
2.271,-0.154
2.272,-0.139
2.273,-0.142
2.274,-0.137
2.275,-0.141
2.276,-0.122
2.277,-0.119
2.278,-0.117
2.279,-0.105
2.28,-0.122
2.281,-0.147
2.282,-0.142
2.283,-0.117
2.284,-0.121
2.285,-0.112
2.286,-0.103
2.287,-0.129
2.288,-0.143
2.289,-0.138
2.29,-0.119
2.291,-0.104
2.292,-0.107
2.293,-0.13
2.294,-0.161
2.295,-0.143
2.296,-0.124
2.297,-0.133
2.298,-0.13
2.299,-0.145
2.3,-0.136
2.301,-0.108
2.302,-0.089
2.303,-0.098
2.304,-0.107
2.305,-0.102
2.306,-0.091
2.307,-0.079
2.308,-0.11
2.309,-0.117
2.31,-0.116
2.311,-0.116
2.312,-0.109
2.313,-0.114
2.314,-0.103
2.315,-0.102
2.316,-0.11
2.317,-0.108
2.318,-0.093
2.319,-0.081
2.32,-0.088
2.321,-0.09
2.322,-0.073
2.323,-0.07
2.324,-0.068
2.325,-0.077
2.326,-0.072
2.327,-0.045
2.328,-0.053
2.329,-0.065
2.33,-0.069
2.331,-0.061
2.332,-0.051
2.333,-0.051
2.334,-0.055
2.335,-0.053
2.336,-0.051
2.337,-0.062
2.338,-0.052
2.339,-0.039
2.34,-0.041
2.341,-0.031
2.342,-0.021
2.343,-0.032
2.344,-0.047
2.345,-0.025
2.346,0.002
2.347,0.017
2.348,0.009
2.349,0.003
2.35,0.013
2.351,-0.02
2.352,-0.03
2.353,-0.019
2.354,-0.026
2.355,-0.019
2.356,0.011
2.357,0.027
2.358,-0.009
2.359,-0.034
2.36,-0.017
2.361,0.004
2.362,0.014
2.363,0.026
2.364,0.027
2.365,0.035
2.366,0.042
2.367,0.04
2.368,0.043
2.369,0.042
2.37,0.036
2.371,0.032
2.372,0.033
2.373,0.022
2.374,0.02
2.375,0.028
2.376,0.022
2.377,0.047
2.378,0.062
2.379,0.048
2.38,0.042
2.381,0.043
2.382,0.051
2.383,0.06
2.384,0.069
2.385,0.054
2.386,0.048
2.387,0.054
2.388,0.054
2.389,0.052
2.39,0.043
2.391,0.023
2.392,0.025
2.393,0.04
2.394,0.028
2.395,0.039
2.396,0.059
2.397,0.068
2.398,0.065
2.399,0.059
2.4,0.059
2.401,0.077
2.402,0.083
2.403,0.032
2.404,0.024
2.405,0.044
2.406,0.053
2.407,0.053
2.408,0.022
2.409,0.026
2.41,0.036
2.411,0.019
2.412,0.013
2.413,0.02
2.414,0.042
2.415,0.036
2.416,0.025
2.417,0.018
2.418,0.007
2.419,0.013
2.42,-0.001
2.421,-0.004
2.422,0.015
2.423,0.011
2.424,0.005
2.425,0.011
2.426,0.017
2.427,0.028
2.428,0.015
2.429,0.005
2.43,0.016
2.431,0.004
2.432,-0.006
2.433,-0.013
2.434,-0.029
2.435,-0.013
2.436,-0.006
2.437,-0.015
2.438,-0.003
2.439,-0.011
2.44,-0.007
2.441,0.005
2.442,0.005
2.443,-0.005
2.444,-0.006
2.445,0.015
2.446,-0.003
2.447,-0.013
2.448,-0.029
2.449,-0.044
2.45,-0.021
2.451,-0.021
2.452,-0.035
2.453,-0.043
2.454,-0.043
2.455,-0.018
2.456,-0.018
2.457,-0.043
2.458,-0.051
2.459,-0.052
2.46,-0.049
2.461,-0.051
2.462,-0.054
2.463,-0.05
2.464,-0.036
2.465,-0.042
2.466,-0.046
2.467,-0.058
2.468,-0.066
2.469,-0.058
2.47,-0.064
2.471,-0.053
2.472,-0.058
2.473,-0.073
2.474,-0.073
2.475,-0.07
2.476,-0.068
2.477,-0.069
2.478,-0.062
2.479,-0.058
2.48,-0.044
2.481,-0.056
2.482,-0.076
2.483,-0.074
2.484,-0.077
2.485,-0.065
2.486,-0.059
2.487,-0.082
2.488,-0.113
2.489,-0.09
2.49,-0.067
2.491,-0.096
2.492,-0.096
2.493,-0.096
2.494,-0.08
2.495,-0.069
2.496,-0.085
2.497,-0.082
2.498,-0.093
2.499,-0.108
2.5,-0.084
2.501,-0.077
2.502,-0.084
2.503,-0.089
2.504,-0.093
2.505,-0.089
2.506,-0.07
2.507,-0.065
2.508,-0.093
2.509,-0.093
2.51,-0.103
2.511,-0.1
2.512,-0.091
2.513,-0.102
2.514,-0.097
2.515,-0.089
2.516,-0.089
2.517,-0.1
2.518,-0.097
2.519,-0.091
2.52,-0.083
2.521,-0.072
2.522,-0.075
2.523,-0.078
2.524,-0.084
2.525,-0.09
2.526,-0.089
2.527,-0.082
2.528,-0.096
2.529,-0.099
2.53,-0.075
2.531,-0.089
2.532,-0.114
2.533,-0.114
2.534,-0.102
2.535,-0.09
2.536,-0.09
2.537,-0.086
2.538,-0.096
2.539,-0.104
2.54,-0.079
2.541,-0.08
2.542,-0.072
2.543,-0.067
2.544,-0.094
2.545,-0.092
2.546,-0.065
2.547,-0.061
2.548,-0.07
2.549,-0.084
2.55,-0.096
2.551,-0.082
2.552,-0.093
2.553,-0.088
2.554,-0.092
2.555,-0.099
2.556,-0.073
2.557,-0.066
2.558,-0.066
2.559,-0.08
2.56,-0.072
2.561,-0.067
2.562,-0.074
2.563,-0.07
2.564,-0.069
2.565,-0.072
2.566,-0.075
2.567,-0.072
2.568,-0.079
2.569,-0.082
2.57,-0.081
2.571,-0.083
2.572,-0.086
2.573,-0.087
2.574,-0.086
2.575,-0.095
2.576,-0.088
2.577,-0.086
2.578,-0.08
2.579,-0.077
2.58,-0.091
2.581,-0.083
2.582,-0.088
2.583,-0.095
2.584,-0.086
2.585,-0.084
2.586,-0.062
2.587,-0.049
2.588,-0.074
2.589,-0.098
2.59,-0.103
2.591,-0.1
2.592,-0.09
2.593,-0.086
2.594,-0.081
2.595,-0.103
2.596,-0.136
2.597,-0.153
2.598,-0.114
2.599,-0.066
2.6,-0.087
2.601,-0.094
2.602,-0.09
2.603,-0.114
2.604,-0.133
2.605,-0.086
2.606,-0.043
2.607,-0.067
2.608,-0.08
2.609,-0.084
2.61,-0.093
2.611,-0.098
2.612,-0.102
2.613,-0.103
2.614,-0.096
2.615,-0.089
2.616,-0.095
2.617,-0.105
2.618,-0.101
2.619,-0.102
2.62,-0.101
2.621,-0.096
2.622,-0.095
2.623,-0.096
2.624,-0.098
2.625,-0.104
2.626,-0.104
2.627,-0.102
2.628,-0.106
2.629,-0.107
2.63,-0.108
2.631,-0.113
2.632,-0.098
2.633,-0.103
2.634,-0.135
2.635,-0.119
2.636,-0.108
2.637,-0.121
2.638,-0.126
2.639,-0.121
2.64,-0.117
2.641,-0.116
2.642,-0.103
2.643,-0.097
2.644,-0.1
2.645,-0.102
2.646,-0.097
2.647,-0.099
2.648,-0.088
2.649,-0.084
2.65,-0.105
2.651,-0.103
2.652,-0.098
2.653,-0.106
2.654,-0.103
2.655,-0.096
2.656,-0.11
2.657,-0.117
2.658,-0.111
2.659,-0.107
2.66,-0.088
2.661,-0.091
2.662,-0.091
2.663,-0.081
2.664,-0.084
2.665,-0.096
2.666,-0.101
2.667,-0.095
2.668,-0.097
2.669,-0.094
2.67,-0.097
2.671,-0.111
2.672,-0.11
2.673,-0.096
2.674,-0.103
2.675,-0.105
2.676,-0.094
2.677,-0.095
2.678,-0.089
2.679,-0.08
2.68,-0.073
2.681,-0.07
2.682,-0.066
2.683,-0.046
2.684,-0.047
2.685,-0.076
2.686,-0.064
2.687,-0.039
2.688,-0.054
2.689,-0.075
2.69,-0.077
2.691,-0.073
2.692,-0.054
2.693,-0.045
2.694,-0.058
2.695,-0.051
2.696,-0.045
2.697,-0.06
2.698,-0.063
2.699,-0.057
2.7,-0.042
2.701,-0.036
2.702,-0.049
2.703,-0.046
2.704,-0.053
2.705,-0.061
2.706,-0.062
2.707,-0.069
2.708,-0.072
2.709,-0.069
2.71,-0.047
2.711,-0.059
2.712,-0.064
2.713,-0.051
2.714,-0.06
2.715,-0.045
2.716,-0.051
2.717,-0.052
2.718,-0.039
2.719,-0.03
2.72,-0.033
2.721,-0.046
2.722,-0.049
2.723,-0.053
2.724,-0.059
2.725,-0.07
2.726,-0.076
2.727,-0.079
2.728,-0.086
2.729,-0.084
2.73,-0.065
2.731,-0.097
2.732,-0.142
2.733,-0.142
2.734,-0.134
2.735,-0.127
2.736,-0.125
2.737,-0.133
2.738,-0.131
2.739,-0.115
2.74,-0.119
2.741,-0.121
2.742,-0.123
2.743,-0.122
2.744,-0.123
2.745,-0.138
2.746,-0.14
2.747,-0.141
2.748,-0.141
2.749,-0.147
2.75,-0.141
2.751,-0.149
2.752,-0.161
2.753,-0.14
2.754,-0.166
2.755,-0.176
2.756,-0.158
2.757,-0.163
2.758,-0.165
2.759,-0.167
2.76,-0.164
2.761,-0.159
2.762,-0.156
2.763,-0.155
2.764,-0.158
2.765,-0.165
2.766,-0.159
2.767,-0.157
2.768,-0.166
2.769,-0.171
2.77,-0.17
2.771,-0.169
2.772,-0.174
2.773,-0.185
2.774,-0.172
2.775,-0.171
2.776,-0.185
2.777,-0.18
2.778,-0.172
2.779,-0.158
2.78,-0.162
2.781,-0.166
2.782,-0.172
2.783,-0.179
2.784,-0.168
2.785,-0.158
2.786,-0.163
2.787,-0.172
2.788,-0.168
2.789,-0.165
2.79,-0.159
2.791,-0.156
2.792,-0.159
2.793,-0.168
2.794,-0.169
2.795,-0.172
2.796,-0.183
2.797,-0.173
2.798,-0.17
2.799,-0.18
2.8,-0.183
2.801,-0.179
2.802,-0.196
2.803,-0.241
2.804,-0.261
2.805,-0.264
2.806,-0.248
2.807,-0.241
2.808,-0.281
2.809,-0.313
2.81,-0.311
2.811,-0.308
2.812,-0.315
2.813,-0.324
2.814,-0.314
2.815,-0.288
2.816,-0.298
2.817,-0.275
2.818,-0.249
2.819,-0.216
2.82,-0.159
2.821,-0.152
2.822,-0.134
2.823,-0.097
2.824,-0.07
2.825,-0.051
2.826,-0.001
2.827,0.05
2.828,0.089
2.829,0.146
2.83,0.196
2.831,0.232
2.832,0.268
2.833,0.318
2.834,0.338
2.835,0.343
2.836,0.35
2.837,0.362
2.838,0.367
2.839,0.349
2.84,0.353
2.841,0.344
2.842,0.331
2.843,0.341
2.844,0.291
2.845,0.237
2.846,0.227
2.847,0.192
2.848,0.161
2.849,0.155
2.85,0.143
2.851,0.134
2.852,0.136
2.853,0.13
2.854,0.125
2.855,0.102
2.856,0.079
2.857,0.079
2.858,0.082
2.859,0.072
2.86,0.054
2.861,0.041
2.862,0.018
2.863,0.014
2.864,-0.006
2.865,-0.049
2.866,-0.081
2.867,-0.083
2.868,-0.06
2.869,-0.084
2.87,-0.117
2.871,-0.149
2.872,-0.177
2.873,-0.177
2.874,-0.221
2.875,-0.265
2.876,-0.283
2.877,-0.312
2.878,-0.331
2.879,-0.352
2.88,-0.372
2.881,-0.387
2.882,-0.403
2.883,-0.434
2.884,-0.459
2.885,-0.453
2.886,-0.466
2.887,-0.487
2.888,-0.502
2.889,-0.521
2.89,-0.536
2.891,-0.546
2.892,-0.558
2.893,-0.566
2.894,-0.569
2.895,-0.574
2.896,-0.595
2.897,-0.623
2.898,-0.624
2.899,-0.616
2.9,-0.581
2.901,-0.57
2.902,-0.588
2.903,-0.591
2.904,-0.595
2.905,-0.555
2.906,-0.515
2.907,-0.492
2.908,-0.477
2.909,-0.482
2.91,-0.446
2.911,-0.427
2.912,-0.421
2.913,-0.404
2.914,-0.387
2.915,-0.366
2.916,-0.369
2.917,-0.349
2.918,-0.323
2.919,-0.326
2.92,-0.314
2.921,-0.282
2.922,-0.266
2.923,-0.245
2.924,-0.243
2.925,-0.245
2.926,-0.234
2.927,-0.248
2.928,-0.244
2.929,-0.234
2.93,-0.229
2.931,-0.225
2.932,-0.233
2.933,-0.229
2.934,-0.235
2.935,-0.23
2.936,-0.226
2.937,-0.21
2.938,-0.192
2.939,-0.206
2.94,-0.206
2.941,-0.198
2.942,-0.191
2.943,-0.193
2.944,-0.197
2.945,-0.209
2.946,-0.203
2.947,-0.19
2.948,-0.217
2.949,-0.216
2.95,-0.204
2.951,-0.205
2.952,-0.211
2.953,-0.223
2.954,-0.213
2.955,-0.204
2.956,-0.216
2.957,-0.209
2.958,-0.212
2.959,-0.217
2.96,-0.188
2.961,-0.174
2.962,-0.16
2.963,-0.167
2.964,-0.18
2.965,-0.176
2.966,-0.177
2.967,-0.178
2.968,-0.178
2.969,-0.181
2.97,-0.186
2.971,-0.189
2.972,-0.188
2.973,-0.191
2.974,-0.197
2.975,-0.185
2.976,-0.19
2.977,-0.195
2.978,-0.185
2.979,-0.184
2.98,-0.176
2.981,-0.165
2.982,-0.183
2.983,-0.19
2.984,-0.171
2.985,-0.19
2.986,-0.203
2.987,-0.201
2.988,-0.197
2.989,-0.198
2.99,-0.201
2.991,-0.2
2.992,-0.204
2.993,-0.203
2.994,-0.197
2.995,-0.203
2.996,-0.217
2.997,-0.203
2.998,-0.19
2.999,-0.185
3,-0.184
3.001,-0.185
3.002,-0.181
3.003,-0.184
3.004,-0.201
3.005,-0.206
3.006,-0.158
3.007,-0.17
3.008,-0.213
3.009,-0.202
3.01,-0.207
3.011,-0.21
3.012,-0.216
3.013,-0.233
3.014,-0.197
3.015,-0.171
3.016,-0.204
3.017,-0.207
3.018,-0.186
3.019,-0.173
3.02,-0.159
3.021,-0.161
3.022,-0.162
3.023,-0.159
3.024,-0.158
3.025,-0.138
3.026,-0.157
3.027,-0.189
3.028,-0.168
3.029,-0.16
3.03,-0.172
3.031,-0.172
3.032,-0.166
3.033,-0.164
3.034,-0.166
3.035,-0.162
3.036,-0.172
3.037,-0.166
3.038,-0.158
3.039,-0.157
3.04,-0.153
3.041,-0.146
3.042,-0.136
3.043,-0.142
3.044,-0.146
3.045,-0.143
3.046,-0.138
3.047,-0.142
3.048,-0.144
3.049,-0.135
3.05,-0.134
3.051,-0.129
3.052,-0.133
3.053,-0.143
3.054,-0.139
3.055,-0.127
3.056,-0.117
3.057,-0.102
3.058,-0.108
3.059,-0.118
3.06,-0.102
3.061,-0.089
3.062,-0.085
3.063,-0.081
3.064,-0.079
3.065,-0.086
3.066,-0.081
3.067,-0.079
3.068,-0.086
3.069,-0.069
3.07,-0.074
3.071,-0.07
3.072,-0.062
3.073,-0.085
3.074,-0.083
3.075,-0.079
3.076,-0.103
3.077,-0.076
3.078,-0.037
3.079,-0.059
3.08,-0.037
3.081,-0.049
3.082,-0.069
3.083,-0.021
3.084,-0.013
3.085,-0.037
3.086,-0.047
3.087,-0.035
3.088,-0.017
3.089,-0.013
3.09,-0.017
3.091,-0.025
3.092,-0.026
3.093,-0.033
3.094,-0.037
3.095,-0.018
3.096,-0.009
3.097,0.001
3.098,0.015
3.099,0.022
3.1,0.026
3.101,0.022
3.102,0.017
3.103,0.003
3.104,0.004
3.105,0.023
3.106,0.024
3.107,0.014
3.108,-0.011
3.109,-0.014
3.11,0.024
3.111,0.018
3.112,0.005
3.113,0.019
3.114,0.029
3.115,0.021
3.116,0.011
3.117,0.028
3.118,0.029
3.119,0.017
3.12,0.013
3.121,0.024
3.122,0.048
3.123,0.041
3.124,0.036
3.125,0.029
3.126,0.017
3.127,0.015
3.128,0.011
3.129,0.019
3.13,0.026
3.131,0.024
3.132,0.022
3.133,0.013
3.134,0.01
3.135,0.011
3.136,0.01
3.137,0.018
3.138,0.015
3.139,0.011
3.14,0.013
3.141,0.013
3.142,0.013
3.143,0.017
3.144,0.018
3.145,0.01
3.146,0.019
3.147,0.004
3.148,-0.013
3.149,-0.007
3.15,-0.009
3.151,-0.021
3.152,-0.04
3.153,-0.048
3.154,-0.034
3.155,-0.047
3.156,-0.081
3.157,-0.045
3.158,-0.017
3.159,-0.035
3.16,-0.015
3.161,-0.01
3.162,-0.049
3.163,-0.041
3.164,-0.032
3.165,-0.046
3.166,-0.03
3.167,-0.019
3.168,-0.029
3.169,-0.051
3.17,-0.067
3.171,-0.058
3.172,-0.051
3.173,-0.077
3.174,-0.075
3.175,-0.07
3.176,-0.103
3.177,-0.099
3.178,-0.08
3.179,-0.081
3.18,-0.073
3.181,-0.075
3.182,-0.068
3.183,-0.071
3.184,-0.076
3.185,-0.07
3.186,-0.088
3.187,-0.091
3.188,-0.08
3.189,-0.081
3.19,-0.101
3.191,-0.105
3.192,-0.102
3.193,-0.104
3.194,-0.101
3.195,-0.113
3.196,-0.12
3.197,-0.111
3.198,-0.119
3.199,-0.121
3.2,-0.104
3.201,-0.103
3.202,-0.107
3.203,-0.11
3.204,-0.113
3.205,-0.109
3.206,-0.106
3.207,-0.119
3.208,-0.12
3.209,-0.12
3.21,-0.128
3.211,-0.13
3.212,-0.133
3.213,-0.135
3.214,-0.134
3.215,-0.136
3.216,-0.147
3.217,-0.141
3.218,-0.144
3.219,-0.147
3.22,-0.13
3.221,-0.121
3.222,-0.12
3.223,-0.122
3.224,-0.129
3.225,-0.131
3.226,-0.124
3.227,-0.132
3.228,-0.133
3.229,-0.142
3.23,-0.147
3.231,-0.134
3.232,-0.136
3.233,-0.142
3.234,-0.151
3.235,-0.15
3.236,-0.154
3.237,-0.146
3.238,-0.127
3.239,-0.136
3.24,-0.137
3.241,-0.137
3.242,-0.147
3.243,-0.144
3.244,-0.138
3.245,-0.126
3.246,-0.128
3.247,-0.139
3.248,-0.127
3.249,-0.132
3.25,-0.124
3.251,-0.113
3.252,-0.156
3.253,-0.164
3.254,-0.149
3.255,-0.149
3.256,-0.16
3.257,-0.172
3.258,-0.138
3.259,-0.111
3.26,-0.126
3.261,-0.133
3.262,-0.12
3.263,-0.122
3.264,-0.133
3.265,-0.138
3.266,-0.128
3.267,-0.135
3.268,-0.144
3.269,-0.118
3.27,-0.114
3.271,-0.135
3.272,-0.15
3.273,-0.161
3.274,-0.152
3.275,-0.141
3.276,-0.141
3.277,-0.136
3.278,-0.143
3.279,-0.153
3.28,-0.141
3.281,-0.131
3.282,-0.134
3.283,-0.132
3.284,-0.14
3.285,-0.141
3.286,-0.119
3.287,-0.115
3.288,-0.126
3.289,-0.131
3.29,-0.132
3.291,-0.132
3.292,-0.135
3.293,-0.129
3.294,-0.127
3.295,-0.138
3.296,-0.128
3.297,-0.117
3.298,-0.121
3.299,-0.132
3.3,-0.135
3.301,-0.126
3.302,-0.118
3.303,-0.101
3.304,-0.105
3.305,-0.106
3.306,-0.107
3.307,-0.134
3.308,-0.135
3.309,-0.118
3.31,-0.11
3.311,-0.132
3.312,-0.151
3.313,-0.143
3.314,-0.126
3.315,-0.128
3.316,-0.147
3.317,-0.136
3.318,-0.122
3.319,-0.104
3.32,-0.113
3.321,-0.132
3.322,-0.127
3.323,-0.146
3.324,-0.115
3.325,-0.088
3.326,-0.111
3.327,-0.122
3.328,-0.134
3.329,-0.108
3.33,-0.098
3.331,-0.118
3.332,-0.108
3.333,-0.129
3.334,-0.132
3.335,-0.105
3.336,-0.119
3.337,-0.113
3.338,-0.108
3.339,-0.112
3.34,-0.116
3.341,-0.143
3.342,-0.13
3.343,-0.094
3.344,-0.086
3.345,-0.079
3.346,-0.088
3.347,-0.104
3.348,-0.105
3.349,-0.104
3.35,-0.101
3.351,-0.107
3.352,-0.123
3.353,-0.119
3.354,-0.113
3.355,-0.114
3.356,-0.105
3.357,-0.107
3.358,-0.12
3.359,-0.117
3.36,-0.098
3.361,-0.099
3.362,-0.115
3.363,-0.088
3.364,-0.066
3.365,-0.086
3.366,-0.089
3.367,-0.065
3.368,-0.086
3.369,-0.105
3.37,-0.088
3.371,-0.108
3.372,-0.106
3.373,-0.088
3.374,-0.09
3.375,-0.096
3.376,-0.097
3.377,-0.105
3.378,-0.107
3.379,-0.086
3.38,-0.096
3.381,-0.092
3.382,-0.071
3.383,-0.073
3.384,-0.087
3.385,-0.1
3.386,-0.094
3.387,-0.085
3.388,-0.08
3.389,-0.088
3.39,-0.102
3.391,-0.102
3.392,-0.098
3.393,-0.099
3.394,-0.096
3.395,-0.101
3.396,-0.101
3.397,-0.084
3.398,-0.079
3.399,-0.092
3.4,-0.085
3.401,-0.072
3.402,-0.086
3.403,-0.081
3.404,-0.071
3.405,-0.074
3.406,-0.073
3.407,-0.086
3.408,-0.096
3.409,-0.099
3.41,-0.105
3.411,-0.091
3.412,-0.086
3.413,-0.095
3.414,-0.079
3.415,-0.067
3.416,-0.077
3.417,-0.089
3.418,-0.096
3.419,-0.081
3.42,-0.076
3.421,-0.086
3.422,-0.102
3.423,-0.108
3.424,-0.106
3.425,-0.097
3.426,-0.059
3.427,-0.052
3.428,-0.059
3.429,-0.064
3.43,-0.064
3.431,-0.039
3.432,-0.05
3.433,-0.072
3.434,-0.054
3.435,-0.05
3.436,-0.054
3.437,-0.043
3.438,-0.049
3.439,-0.055
3.44,-0.051
3.441,-0.051
3.442,-0.059
3.443,-0.052
3.444,-0.05
3.445,-0.045
3.446,-0.05
3.447,-0.08
3.448,-0.074
3.449,-0.07
3.45,-0.072
3.451,-0.064
3.452,-0.07
3.453,-0.077
3.454,-0.083
3.455,-0.07
3.456,-0.064
3.457,-0.062
3.458,-0.033
3.459,-0.022
3.46,-0.035
3.461,-0.043
3.462,-0.048
3.463,-0.057
3.464,-0.068
3.465,-0.086
3.466,-0.068
3.467,-0.053
3.468,-0.074
3.469,-0.088
3.47,-0.098
3.471,-0.097
3.472,-0.105
3.473,-0.122
3.474,-0.127
3.475,-0.1
3.476,-0.092
3.477,-0.105
3.478,-0.109
3.479,-0.115
3.48,-0.108
3.481,-0.109
3.482,-0.112
3.483,-0.113
3.484,-0.122
3.485,-0.116
3.486,-0.12
3.487,-0.136
3.488,-0.135
3.489,-0.142
3.49,-0.15
3.491,-0.153
3.492,-0.163
3.493,-0.172
3.494,-0.173
3.495,-0.166
3.496,-0.161
3.497,-0.161
3.498,-0.159
3.499,-0.158
3.5,-0.157
3.501,-0.154
3.502,-0.151
3.503,-0.155
3.504,-0.164
3.505,-0.155
3.506,-0.159
3.507,-0.164
3.508,-0.155
3.509,-0.162
3.51,-0.166
3.511,-0.169
3.512,-0.172
3.513,-0.174
3.514,-0.175
3.515,-0.174
3.516,-0.176
3.517,-0.174
3.518,-0.176
3.519,-0.175
3.52,-0.157
3.521,-0.149
3.522,-0.157
3.523,-0.161
3.524,-0.166
3.525,-0.158
3.526,-0.156
3.527,-0.161
3.528,-0.163
3.529,-0.163
3.53,-0.164
3.531,-0.163
3.532,-0.157
3.533,-0.15
3.534,-0.165
3.535,-0.184
3.536,-0.168
3.537,-0.169
3.538,-0.163
3.539,-0.157
3.54,-0.177
3.541,-0.19
3.542,-0.181
3.543,-0.158
3.544,-0.181
3.545,-0.204
3.546,-0.209
3.547,-0.234
3.548,-0.244
3.549,-0.255
3.55,-0.282
3.551,-0.294
3.552,-0.316
3.553,-0.327
3.554,-0.308
3.555,-0.325
3.556,-0.348
3.557,-0.34
3.558,-0.329
3.559,-0.33
3.56,-0.338
3.561,-0.312
3.562,-0.272
3.563,-0.251
3.564,-0.239
3.565,-0.207
3.566,-0.176
3.567,-0.153
3.568,-0.115
3.569,-0.083
3.57,-0.052
3.571,-0.03
3.572,0.004
3.573,0.07
3.574,0.139
3.575,0.183
3.576,0.222
3.577,0.263
3.578,0.298
3.579,0.329
3.58,0.345
3.581,0.356
3.582,0.358
3.583,0.367
3.584,0.361
3.585,0.352
3.586,0.344
3.587,0.349
3.588,0.332
3.589,0.288
3.59,0.253
3.591,0.207
3.592,0.175
3.593,0.146
3.594,0.124
3.595,0.109
3.596,0.124
3.597,0.143
3.598,0.153
3.599,0.147
3.6,0.109
3.601,0.091
3.602,0.107
3.603,0.102
3.604,0.076
3.605,0.064
3.606,0.033
3.607,0.008
3.608,0.017
3.609,-0.015
3.61,-0.068
3.611,-0.084
3.612,-0.104
3.613,-0.122
3.614,-0.133
3.615,-0.152
3.616,-0.16
3.617,-0.172
3.618,-0.194
3.619,-0.212
3.62,-0.233
3.621,-0.274
3.622,-0.328
3.623,-0.31
3.624,-0.322
3.625,-0.398
3.626,-0.425
3.627,-0.439
3.628,-0.449
3.629,-0.464
3.63,-0.482
3.631,-0.488
3.632,-0.506
3.633,-0.557
3.634,-0.585
3.635,-0.565
3.636,-0.555
3.637,-0.557
3.638,-0.571
3.639,-0.584
3.64,-0.597
3.641,-0.622
3.642,-0.622
3.643,-0.617
3.644,-0.616
3.645,-0.627
3.646,-0.617
3.647,-0.578
3.648,-0.586
3.649,-0.595
3.65,-0.581
3.651,-0.556
3.652,-0.529
3.653,-0.512
3.654,-0.49
3.655,-0.475
3.656,-0.453
3.657,-0.425
3.658,-0.436
3.659,-0.413
3.66,-0.354
3.661,-0.345
3.662,-0.334
3.663,-0.314
3.664,-0.319
3.665,-0.321
3.666,-0.31
3.667,-0.296
3.668,-0.289
3.669,-0.286
3.67,-0.277
3.671,-0.275
3.672,-0.266
3.673,-0.266
3.674,-0.268
3.675,-0.267
3.676,-0.259
3.677,-0.247
3.678,-0.258
3.679,-0.257
3.68,-0.249
3.681,-0.224
3.682,-0.209
3.683,-0.221
3.684,-0.234
3.685,-0.239
3.686,-0.226
3.687,-0.231
3.688,-0.226
3.689,-0.215
3.69,-0.215
3.691,-0.198
3.692,-0.216
3.693,-0.243
3.694,-0.241
3.695,-0.239
3.696,-0.228
3.697,-0.231
3.698,-0.238
3.699,-0.222
3.7,-0.227
3.701,-0.229
3.702,-0.219
3.703,-0.206
3.704,-0.196
3.705,-0.22
3.706,-0.233
3.707,-0.21
3.708,-0.203
3.709,-0.236
3.71,-0.242
3.711,-0.225
3.712,-0.223
3.713,-0.235
3.714,-0.247
3.715,-0.252
3.716,-0.251
3.717,-0.217
3.718,-0.22
3.719,-0.237
3.72,-0.224
3.721,-0.237
3.722,-0.252
3.723,-0.233
3.724,-0.213
3.725,-0.212
3.726,-0.23
3.727,-0.236
3.728,-0.237
3.729,-0.254
3.73,-0.241
3.731,-0.22
3.732,-0.231
3.733,-0.244
3.734,-0.248
3.735,-0.242
3.736,-0.234
3.737,-0.242
3.738,-0.237
3.739,-0.209
3.74,-0.216
3.741,-0.23
3.742,-0.228
3.743,-0.229
3.744,-0.234
3.745,-0.226
3.746,-0.225
3.747,-0.234
3.748,-0.229
3.749,-0.24
3.75,-0.235
3.751,-0.224
3.752,-0.234
3.753,-0.231
3.754,-0.229
3.755,-0.224
3.756,-0.221
3.757,-0.227
3.758,-0.234
3.759,-0.231
3.76,-0.224
3.761,-0.218
3.762,-0.184
3.763,-0.181
3.764,-0.213
3.765,-0.21
3.766,-0.213
3.767,-0.214
3.768,-0.206
3.769,-0.216
3.77,-0.217
3.771,-0.228
3.772,-0.235
3.773,-0.228
3.774,-0.224
3.775,-0.22
3.776,-0.214
3.777,-0.206
3.778,-0.199
3.779,-0.208
3.78,-0.203
3.781,-0.2
3.782,-0.194
3.783,-0.169
3.784,-0.169
3.785,-0.157
3.786,-0.183
3.787,-0.213
3.788,-0.195
3.789,-0.174
3.79,-0.167
3.791,-0.168
3.792,-0.171
3.793,-0.165
3.794,-0.167
3.795,-0.168
3.796,-0.123
3.797,-0.134
3.798,-0.148
3.799,-0.133
3.8,-0.132
3.801,-0.115
3.802,-0.106
3.803,-0.1
3.804,-0.095
3.805,-0.098
3.806,-0.113
3.807,-0.122
3.808,-0.111
3.809,-0.107
3.81,-0.11
3.811,-0.093
3.812,-0.097
3.813,-0.105
3.814,-0.099
3.815,-0.096
3.816,-0.083
3.817,-0.07
3.818,-0.053
3.819,-0.058
3.82,-0.07
3.821,-0.059
3.822,-0.068
3.823,-0.083
3.824,-0.071
3.825,-0.057
3.826,-0.045
3.827,-0.052
3.828,-0.065
3.829,-0.053
3.83,-0.04
3.831,-0.054
3.832,-0.066
3.833,-0.025
3.834,-0.019
3.835,-0.047
3.836,-0.044
3.837,-0.042
3.838,-0.034
3.839,-0.013
3.84,-0.002
3.841,-0.007
3.842,-0.006
3.843,-0.002
3.844,-0.005
3.845,-0.005
3.846,-0.02
3.847,-0.015
3.848,-0.015
3.849,-0.043
3.85,-0.012
3.851,0.021
3.852,-0.013
3.853,-0.032
3.854,-0.018
3.855,-0.021
3.856,-0.013
3.857,0.005
3.858,-0.024
3.859,-0.033
3.86,-0.011
3.861,-0.01
3.862,0.017
3.863,0.021
3.864,0.009
3.865,0.012
3.866,0.004
3.867,0.002
3.868,-0.006
3.869,-0.009
3.87,-0.008
3.871,-0.017
3.872,-0.018
3.873,-0.022
3.874,-0.015
3.875,-0.013
3.876,-0.017
3.877,-0.013
3.878,-0.017
3.879,-0.025
3.88,-0.019
3.881,-0.004
3.882,-0.033
3.883,-0.034
3.884,0.017
3.885,0.021
3.886,-0.018
3.887,-0.043
3.888,-0.038
3.889,-0.067
3.89,-0.058
3.891,-0.011
3.892,-0.034
3.893,-0.059
3.894,-0.041
3.895,-0.029
3.896,-0.029
3.897,-0.035
3.898,-0.036
3.899,-0.035
3.9,-0.037
3.901,-0.037
3.902,-0.02
3.903,-0.022
3.904,-0.062
3.905,-0.061
3.906,-0.059
3.907,-0.064
3.908,-0.057
3.909,-0.084
3.91,-0.113
3.911,-0.087
3.912,-0.062
3.913,-0.078
3.914,-0.082
3.915,-0.089
3.916,-0.091
3.917,-0.086
3.918,-0.073
3.919,-0.066
3.92,-0.07
3.921,-0.072
3.922,-0.082
3.923,-0.08
3.924,-0.08
3.925,-0.087
3.926,-0.11
3.927,-0.096
3.928,-0.096
3.929,-0.118
3.93,-0.101
3.931,-0.101
3.932,-0.105
3.933,-0.092
3.934,-0.091
3.935,-0.079
3.936,-0.102
3.937,-0.136
3.938,-0.115
3.939,-0.119
3.94,-0.117
3.941,-0.118
3.942,-0.12
3.943,-0.116
3.944,-0.115
3.945,-0.102
3.946,-0.116
3.947,-0.111
3.948,-0.09
3.949,-0.117
3.95,-0.127
3.951,-0.117
3.952,-0.138
3.953,-0.126
3.954,-0.111
3.955,-0.121
3.956,-0.119
3.957,-0.119
3.958,-0.121
3.959,-0.115
3.96,-0.115
3.961,-0.113
3.962,-0.117
3.963,-0.122
3.964,-0.111
3.965,-0.103
3.966,-0.106
3.967,-0.103
3.968,-0.106
3.969,-0.143
3.97,-0.147
3.971,-0.133
3.972,-0.137
3.973,-0.135
3.974,-0.143
3.975,-0.145
3.976,-0.147
3.977,-0.141
3.978,-0.131
3.979,-0.126
3.98,-0.123
3.981,-0.133
3.982,-0.133
3.983,-0.141
3.984,-0.135
3.985,-0.135
3.986,-0.167
3.987,-0.178
3.988,-0.152
3.989,-0.141
3.99,-0.177
3.991,-0.181
3.992,-0.158
3.993,-0.171
3.994,-0.165
3.995,-0.15
3.996,-0.153
3.997,-0.146
3.998,-0.153
3.999,-0.156
4,-0.144
4.001,-0.124
4.002,-0.131
4.003,-0.158
4.004,-0.168
4.005,-0.155
4.006,-0.135
4.007,-0.143
4.008,-0.152
4.009,-0.167
4.01,-0.185
4.011,-0.179
4.012,-0.171
4.013,-0.164
4.014,-0.162
4.015,-0.162
4.016,-0.16
4.017,-0.163
4.018,-0.158
4.019,-0.152
4.02,-0.149
4.021,-0.147
4.022,-0.147
4.023,-0.143
4.024,-0.136
4.025,-0.131
4.026,-0.146
4.027,-0.152
4.028,-0.148
4.029,-0.15
4.03,-0.157
4.031,-0.158
4.032,-0.16
4.033,-0.158
4.034,-0.147
4.035,-0.143
4.036,-0.141
4.037,-0.147
4.038,-0.159
4.039,-0.152
4.04,-0.141
4.041,-0.14
4.042,-0.144
4.043,-0.15
4.044,-0.148
4.045,-0.149
4.046,-0.16
4.047,-0.153
4.048,-0.125
4.049,-0.134
4.05,-0.165
4.051,-0.17
4.052,-0.161
4.053,-0.142
4.054,-0.147
4.055,-0.16
4.056,-0.151
4.057,-0.143
4.058,-0.152
4.059,-0.138
4.06,-0.106
4.061,-0.141
4.062,-0.151
4.063,-0.147
4.064,-0.169
4.065,-0.161
4.066,-0.143
4.067,-0.128
4.068,-0.144
4.069,-0.149
4.07,-0.15
4.071,-0.154
4.072,-0.145
4.073,-0.157
4.074,-0.158
4.075,-0.147
4.076,-0.142
4.077,-0.167
4.078,-0.167
4.079,-0.139
4.08,-0.132
4.081,-0.133
4.082,-0.138
4.083,-0.146
4.084,-0.145
4.085,-0.139
4.086,-0.152
4.087,-0.158
4.088,-0.182
4.089,-0.149
4.09,-0.115
4.091,-0.152
4.092,-0.166
4.093,-0.157
4.094,-0.151
4.095,-0.161
4.096,-0.161
4.097,-0.143
4.098,-0.12
4.099,-0.136
4.1,-0.172
4.101,-0.162
4.102,-0.13
4.103,-0.103
4.104,-0.109
4.105,-0.152
4.106,-0.173
4.107,-0.163
4.108,-0.131
4.109,-0.12
4.11,-0.144
4.111,-0.154
4.112,-0.158
4.113,-0.144
4.114,-0.146
4.115,-0.151
4.116,-0.149
4.117,-0.145
4.118,-0.13
4.119,-0.139
4.12,-0.135
4.121,-0.12
4.122,-0.113
4.123,-0.114
4.124,-0.111
4.125,-0.107
4.126,-0.117
4.127,-0.127
4.128,-0.151
4.129,-0.153
4.13,-0.133
4.131,-0.129
4.132,-0.143
4.133,-0.137
4.134,-0.117
4.135,-0.117
4.136,-0.119
4.137,-0.119
4.138,-0.112
4.139,-0.105
4.14,-0.101
4.141,-0.093
4.142,-0.103
4.143,-0.11
4.144,-0.099
4.145,-0.091
4.146,-0.091
4.147,-0.117
4.148,-0.131
4.149,-0.135
4.15,-0.126
4.151,-0.119
4.152,-0.148
4.153,-0.151
4.154,-0.147
4.155,-0.124
4.156,-0.107
4.157,-0.113
4.158,-0.099
4.159,-0.092
4.16,-0.104
4.161,-0.126
4.162,-0.09
4.163,-0.056
4.164,-0.082
4.165,-0.087
4.166,-0.091
4.167,-0.054
4.168,-0.062
4.169,-0.087
4.17,-0.051
4.171,-0.065
4.172,-0.068
4.173,-0.071
4.174,-0.062
4.175,-0.047
4.176,-0.051
4.177,-0.043
4.178,-0.041
4.179,-0.037
4.18,-0.034
4.181,-0.05
4.182,-0.045
4.183,-0.028
4.184,-0.037
4.185,-0.043
4.186,-0.061
4.187,-0.074
4.188,-0.084
4.189,-0.059
4.19,-0.054
4.191,-0.074
4.192,-0.079
4.193,-0.095
4.194,-0.076
4.195,-0.073
4.196,-0.072
4.197,-0.063
4.198,-0.057
4.199,-0.046
4.2,-0.059
4.201,-0.057
4.202,-0.036
4.203,-0.045
4.204,-0.053
4.205,-0.043
4.206,-0.052
4.207,-0.061
4.208,-0.071
4.209,-0.086
4.21,-0.092
4.211,-0.102
4.212,-0.117
4.213,-0.116
4.214,-0.102
4.215,-0.105
4.216,-0.112
4.217,-0.118
4.218,-0.12
4.219,-0.118
4.22,-0.13
4.221,-0.127
4.222,-0.11
4.223,-0.112
4.224,-0.124
4.225,-0.114
4.226,-0.114
4.227,-0.124
4.228,-0.126
4.229,-0.117
4.23,-0.11
4.231,-0.137
4.232,-0.17
4.233,-0.172
4.234,-0.16
4.235,-0.154
4.236,-0.158
4.237,-0.183
4.238,-0.184
4.239,-0.152
4.24,-0.14
4.241,-0.137
4.242,-0.133
4.243,-0.156
4.244,-0.153
4.245,-0.121
4.246,-0.118
4.247,-0.14
4.248,-0.167
4.249,-0.164
4.25,-0.148
4.251,-0.143
4.252,-0.154
4.253,-0.155
4.254,-0.128
4.255,-0.154
4.256,-0.167
4.257,-0.15
4.258,-0.155
4.259,-0.141
4.26,-0.133
4.261,-0.143
4.262,-0.133
4.263,-0.112
4.264,-0.12
4.265,-0.121
4.266,-0.158
4.267,-0.162
4.268,-0.138
4.269,-0.159
4.27,-0.16
4.271,-0.151
4.272,-0.149
4.273,-0.145
4.274,-0.153
4.275,-0.172
4.276,-0.16
4.277,-0.158
4.278,-0.152
4.279,-0.133
4.28,-0.138
4.281,-0.141
4.282,-0.144
4.283,-0.158
4.284,-0.167
4.285,-0.167
4.286,-0.183
4.287,-0.199
4.288,-0.215
4.289,-0.241
4.29,-0.253
4.291,-0.28
4.292,-0.291
4.293,-0.297
4.294,-0.314
4.295,-0.337
4.296,-0.35
4.297,-0.359
4.298,-0.392
4.299,-0.339
4.3,-0.276
4.301,-0.283
4.302,-0.29
4.303,-0.272
4.304,-0.245
4.305,-0.233
4.306,-0.211
4.307,-0.183
4.308,-0.144
4.309,-0.116
4.31,-0.107
4.311,-0.073
4.312,-0.009
4.313,0.033
4.314,0.064
4.315,0.133
4.316,0.189
4.317,0.242
4.318,0.295
4.319,0.331
4.32,0.342
4.321,0.343
4.322,0.386
4.323,0.379
4.324,0.349
4.325,0.365
4.326,0.38
4.327,0.366
4.328,0.36
4.329,0.34
4.33,0.302
4.331,0.273
4.332,0.21
4.333,0.177
4.334,0.169
4.335,0.158
4.336,0.172
4.337,0.183
4.338,0.19
4.339,0.198
4.34,0.186
4.341,0.159
4.342,0.138
4.343,0.126
4.344,0.122
4.345,0.109
4.346,0.086
4.347,0.058
4.348,0.021
4.349,-0.004
4.35,-0.027
4.351,-0.04
4.352,-0.045
4.353,-0.061
4.354,-0.093
4.355,-0.107
4.356,-0.111
4.357,-0.144
4.358,-0.17
4.359,-0.203
4.36,-0.222
4.361,-0.235
4.362,-0.263
4.363,-0.28
4.364,-0.299
4.365,-0.323
4.366,-0.356
4.367,-0.373
4.368,-0.4
4.369,-0.425
4.37,-0.447
4.371,-0.486
4.372,-0.483
4.373,-0.468
4.374,-0.499
4.375,-0.525
4.376,-0.524
4.377,-0.533
4.378,-0.529
4.379,-0.54
4.38,-0.556
4.381,-0.559
4.382,-0.566
4.383,-0.565
4.384,-0.584
4.385,-0.607
4.386,-0.619
4.387,-0.609
4.388,-0.579
4.389,-0.564
4.39,-0.571
4.391,-0.57
4.392,-0.554
4.393,-0.527
4.394,-0.472
4.395,-0.453
4.396,-0.475
4.397,-0.489
4.398,-0.46
4.399,-0.405
4.4,-0.385
4.401,-0.377
4.402,-0.357
4.403,-0.339
4.404,-0.333
4.405,-0.321
4.406,-0.316
4.407,-0.31
4.408,-0.296
4.409,-0.287
4.41,-0.273
4.411,-0.266
4.412,-0.252
4.413,-0.237
4.414,-0.238
4.415,-0.235
4.416,-0.231
4.417,-0.224
4.418,-0.217
4.419,-0.206
4.42,-0.211
4.421,-0.209
4.422,-0.194
4.423,-0.196
4.424,-0.191
4.425,-0.2
4.426,-0.209
4.427,-0.211
4.428,-0.23
4.429,-0.214
4.43,-0.193
4.431,-0.191
4.432,-0.204
4.433,-0.202
4.434,-0.185
4.435,-0.192
4.436,-0.205
4.437,-0.195
4.438,-0.164
4.439,-0.18
4.44,-0.197
4.441,-0.189
4.442,-0.189
4.443,-0.193
4.444,-0.208
4.445,-0.189
4.446,-0.166
4.447,-0.188
4.448,-0.193
4.449,-0.198
4.45,-0.211
4.451,-0.206
4.452,-0.209
4.453,-0.196
4.454,-0.195
4.455,-0.198
4.456,-0.2
4.457,-0.184
4.458,-0.194
4.459,-0.238
4.46,-0.212
4.461,-0.188
4.462,-0.186
4.463,-0.176
4.464,-0.173
4.465,-0.194
4.466,-0.212
4.467,-0.196
4.468,-0.182
4.469,-0.191
4.47,-0.196
4.471,-0.207
4.472,-0.22
4.473,-0.198
4.474,-0.177
4.475,-0.186
4.476,-0.194
4.477,-0.185
4.478,-0.189
4.479,-0.2
4.48,-0.182
4.481,-0.172
4.482,-0.191
4.483,-0.199
4.484,-0.182
4.485,-0.175
4.486,-0.176
4.487,-0.188
4.488,-0.21
4.489,-0.201
4.49,-0.164
4.491,-0.178
4.492,-0.213
4.493,-0.177
4.494,-0.181
4.495,-0.199
4.496,-0.165
4.497,-0.175
4.498,-0.173
4.499,-0.176
4.5,-0.193
4.501,-0.172
4.502,-0.172
4.503,-0.168
4.504,-0.17
4.505,-0.188
4.506,-0.184
4.507,-0.189
4.508,-0.188
4.509,-0.189
4.51,-0.191
4.511,-0.19
4.512,-0.18
4.513,-0.162
4.514,-0.163
4.515,-0.167
4.516,-0.158
4.517,-0.163
4.518,-0.155
4.519,-0.14
4.52,-0.137
4.521,-0.116
4.522,-0.117
4.523,-0.124
4.524,-0.089
4.525,-0.107
4.526,-0.148
4.527,-0.141
4.528,-0.123
4.529,-0.121
4.53,-0.12
4.531,-0.11
4.532,-0.121
4.533,-0.13
4.534,-0.124
4.535,-0.121
4.536,-0.123
4.537,-0.147
4.538,-0.138
4.539,-0.092
4.54,-0.102
4.541,-0.091
4.542,-0.06
4.543,-0.073
4.544,-0.069
4.545,-0.064
4.546,-0.084
4.547,-0.08
4.548,-0.071
4.549,-0.086
4.55,-0.066
4.551,-0.057
4.552,-0.061
4.553,-0.051
4.554,-0.056
4.555,-0.053
4.556,-0.04
4.557,-0.022
4.558,-0.03
4.559,-0.037
4.56,-0.021
4.561,-0.024
4.562,-0.037
4.563,-0.018
4.564,-0.001
4.565,-0.012
4.566,-0.02
4.567,-0.025
4.568,-0.017
4.569,-0.009
4.57,-0.013
4.571,-0.018
4.572,-0.02
4.573,-0.013
4.574,-0.019
4.575,0.001
4.576,0.007
4.577,0.001
4.578,0.004
4.579,0.001
4.58,0.011
4.581,0.015
4.582,0.021
4.583,0.015
4.584,0.021
4.585,0.018
4.586,-0.002
4.587,0.009
4.588,0.019
4.589,0.015
4.59,0.011
4.591,0.021
4.592,0.019
4.593,0.019
4.594,0.026
4.595,0.004
4.596,0.021
4.597,0.05
4.598,0.046
4.599,0.031
4.6,0.02
4.601,0.02
4.602,0.038
4.603,0.08
4.604,0.052
4.605,0.026
4.606,0.042
4.607,0.035
4.608,0.041
4.609,0.031
4.61,0.003
4.611,0.018
4.612,0.035
4.613,0.035
4.614,0.051
4.615,0.021
4.616,0.002
4.617,0.026
4.618,0.027
4.619,0.028
4.62,0.025
4.621,0.032
4.622,0.058
4.623,0.034
4.624,0.025
4.625,0.027
4.626,0.01
4.627,0.014
4.628,0.006
4.629,0.004
4.63,0.004
4.631,-0.004
4.632,-0.003
4.633,0.012
4.634,0.013
4.635,0.012
4.636,0.015
4.637,0.006
4.638,0.004
4.639,0.004
4.64,0.008
4.641,0.021
4.642,0.013
4.643,0.004
4.644,0.004
4.645,-0.013
4.646,-0.002
4.647,-0.007
4.648,-0.023
4.649,-0.013
4.65,-0.011
4.651,-0.019
4.652,-0.013
4.653,-0.004
4.654,-0.015
4.655,-0.009
4.656,-0.019
4.657,-0.018
4.658,-0.006
4.659,-0.017
4.66,-0.025
4.661,-0.035
4.662,-0.021
4.663,-0.014
4.664,-0.018
4.665,-0.013
4.666,-0.022
4.667,-0.033
4.668,-0.041
4.669,-0.04
4.67,-0.028
4.671,-0.035
4.672,-0.043
4.673,-0.035
4.674,-0.029
4.675,-0.035
4.676,-0.047
4.677,-0.059
4.678,-0.045
4.679,-0.029
4.68,-0.056
4.681,-0.066
4.682,-0.054
4.683,-0.059
4.684,-0.057
4.685,-0.048
4.686,-0.041
4.687,-0.06
4.688,-0.07
4.689,-0.077
4.69,-0.082
4.691,-0.073
4.692,-0.085
4.693,-0.067
4.694,-0.067
4.695,-0.058
4.696,-0.033
4.697,-0.057
4.698,-0.074
4.699,-0.092
4.7,-0.103
4.701,-0.1
4.702,-0.095
4.703,-0.102
4.704,-0.113
4.705,-0.079
4.706,-0.069
4.707,-0.082
4.708,-0.098
4.709,-0.102
4.71,-0.083
4.711,-0.097
4.712,-0.101
4.713,-0.101
4.714,-0.115
4.715,-0.108
4.716,-0.092
4.717,-0.089
4.718,-0.084
4.719,-0.08
4.72,-0.09
4.721,-0.086
4.722,-0.076
4.723,-0.085
4.724,-0.09
4.725,-0.087
4.726,-0.081
4.727,-0.079
4.728,-0.082
4.729,-0.093
4.73,-0.112
4.731,-0.1
4.732,-0.079
4.733,-0.091
4.734,-0.101
4.735,-0.096
4.736,-0.083
4.737,-0.079
4.738,-0.08
4.739,-0.064
4.74,-0.061
4.741,-0.075
4.742,-0.071
4.743,-0.073
4.744,-0.067
4.745,-0.05
4.746,-0.064
4.747,-0.077
4.748,-0.078
4.749,-0.075
4.75,-0.081
4.751,-0.091
4.752,-0.096
4.753,-0.084
4.754,-0.076
4.755,-0.076
4.756,-0.071
4.757,-0.07
4.758,-0.071
4.759,-0.065
4.76,-0.062
4.761,-0.069
4.762,-0.072
4.763,-0.08
4.764,-0.069
4.765,-0.056
4.766,-0.046
4.767,-0.051
4.768,-0.062
4.769,-0.07
4.77,-0.108
4.771,-0.111
4.772,-0.061
4.773,-0.045
4.774,-0.065
4.775,-0.064
4.776,-0.051
4.777,-0.045
4.778,-0.054
4.779,-0.063
4.78,-0.057
4.781,-0.064
4.782,-0.043
4.783,-0.018
4.784,-0.037
4.785,-0.046
4.786,-0.055
4.787,-0.066
4.788,-0.067
4.789,-0.062
4.79,-0.051
4.791,-0.045
4.792,-0.048
4.793,-0.045
4.794,-0.075
4.795,-0.091
4.796,-0.068
4.797,-0.08
4.798,-0.056
4.799,-0.032
4.8,-0.04
4.801,-0.053
4.802,-0.067
4.803,-0.053
4.804,-0.054
4.805,-0.044
4.806,-0.035
4.807,-0.044
4.808,-0.049
4.809,-0.058
4.81,-0.059
4.811,-0.061
4.812,-0.071
4.813,-0.073
4.814,-0.073
4.815,-0.077
4.816,-0.075
4.817,-0.087
4.818,-0.098
4.819,-0.069
4.82,-0.056
4.821,-0.051
4.822,-0.042
4.823,-0.057
4.824,-0.061
4.825,-0.043
4.826,-0.047
4.827,-0.049
4.828,-0.046
4.829,-0.082
4.83,-0.071
4.831,-0.035
4.832,-0.038
4.833,-0.035
4.834,-0.053
4.835,-0.061
4.836,-0.055
4.837,-0.064
4.838,-0.066
4.839,-0.08
4.84,-0.078
4.841,-0.069
4.842,-0.071
4.843,-0.067
4.844,-0.051
4.845,-0.058
4.846,-0.072
4.847,-0.059
4.848,-0.066
4.849,-0.071
4.85,-0.073
4.851,-0.081
4.852,-0.076
4.853,-0.074
4.854,-0.088
4.855,-0.084
4.856,-0.065
4.857,-0.061
4.858,-0.057
4.859,-0.059
4.86,-0.07
4.861,-0.073
4.862,-0.083
4.863,-0.077
4.864,-0.062
4.865,-0.068
4.866,-0.071
4.867,-0.072
4.868,-0.075
4.869,-0.078
4.87,-0.079
4.871,-0.074
4.872,-0.075
4.873,-0.076
4.874,-0.073
4.875,-0.058
4.876,-0.053
4.877,-0.062
4.878,-0.058
4.879,-0.063
4.88,-0.062
4.881,-0.049
4.882,-0.028
4.883,-0.003
4.884,-0.034
4.885,-0.074
4.886,-0.106
4.887,-0.113
4.888,-0.065
4.889,-0.059
4.89,-0.085
4.891,-0.093
4.892,-0.103
4.893,-0.078
4.894,-0.053
4.895,-0.06
4.896,-0.062
4.897,-0.044
4.898,-0.034
4.899,-0.057
4.9,-0.043
4.901,-0.025
4.902,-0.015
4.903,-0.001
4.904,-0.007
4.905,-0.021
4.906,-0.015
4.907,-0.011
4.908,-0.013
4.909,-0.017
4.91,-0.024
4.911,-0.009
4.912,-0.016
4.913,-0.009
4.914,-0.018
4.915,-0.025
4.916,-0.02
4.917,-0.026
4.918,-0.031
4.919,-0.026
4.92,-0.004
4.921,-0.022
4.922,-0.034
4.923,-0.027
4.924,-0.025
4.925,-0.021
4.926,-0.029
4.927,-0.03
4.928,-0.013
4.929,0
4.93,-0.013
4.931,-0.009
4.932,0
4.933,-0.001
4.934,-0.009
4.935,-0.036
4.936,-0.049
4.937,-0.047
4.938,-0.032
4.939,-0.015
4.94,-0.025
4.941,-0.03
4.942,-0.054
4.943,-0.079
4.944,-0.038
4.945,-0.031
4.946,-0.056
4.947,-0.073
4.948,-0.08
4.949,-0.076
4.95,-0.106
4.951,-0.123
4.952,-0.112
4.953,-0.102
4.954,-0.088
4.955,-0.089
4.956,-0.106
4.957,-0.106
4.958,-0.108
4.959,-0.093
4.96,-0.086
4.961,-0.093
4.962,-0.096
4.963,-0.116
4.964,-0.095
4.965,-0.088
4.966,-0.106
4.967,-0.098
4.968,-0.14
4.969,-0.151
4.97,-0.117
4.971,-0.138
4.972,-0.141
4.973,-0.11
4.974,-0.105
4.975,-0.106
4.976,-0.102
4.977,-0.113
4.978,-0.129
4.979,-0.119
4.98,-0.112
4.981,-0.103
4.982,-0.091
4.983,-0.103
4.984,-0.115
4.985,-0.143
4.986,-0.135
4.987,-0.111
4.988,-0.129
4.989,-0.134
4.99,-0.124
4.991,-0.131
4.992,-0.141
4.993,-0.134
4.994,-0.145
4.995,-0.12
4.996,-0.118
4.997,-0.145
4.998,-0.134
4.999,-0.128
5,-0.117
5.001,-0.118
5.002,-0.128
5.003,-0.12
5.004,-0.11
5.005,-0.122
5.006,-0.124
5.007,-0.115
5.008,-0.122
5.009,-0.152
5.01,-0.153
5.011,-0.14
5.012,-0.15
5.013,-0.152
5.014,-0.167
5.015,-0.177
5.016,-0.17
5.017,-0.169
5.018,-0.188
5.019,-0.203
5.02,-0.206
5.021,-0.215
5.022,-0.221
5.023,-0.241
5.024,-0.281
5.025,-0.303
5.026,-0.301
5.027,-0.316
5.028,-0.314
5.029,-0.308
5.03,-0.32
5.031,-0.306
5.032,-0.281
5.033,-0.263
5.034,-0.252
5.035,-0.22
5.036,-0.175
5.037,-0.153
5.038,-0.127
5.039,-0.114
5.04,-0.101
5.041,-0.007
5.042,0.048
5.043,0.076
5.044,0.112
5.045,0.138
5.046,0.192
5.047,0.212
5.048,0.244
5.049,0.292
5.05,0.321
5.051,0.342
5.052,0.351
5.053,0.352
5.054,0.353
5.055,0.361
5.056,0.371
5.057,0.364
5.058,0.355
5.059,0.34
5.06,0.287
5.061,0.239
5.062,0.227
5.063,0.212
5.064,0.183
5.065,0.166
5.066,0.164
5.067,0.175
5.068,0.188
5.069,0.176
5.07,0.168
5.071,0.138
5.072,0.104
5.073,0.1
5.074,0.077
5.075,0.086
5.076,0.082
5.077,0.043
5.078,0.018
5.079,0.006
5.08,-0.009
5.081,-0.034
5.082,-0.043
5.083,-0.047
5.084,-0.04
5.085,-0.072
5.086,-0.123
5.087,-0.142
5.088,-0.177
5.089,-0.209
5.09,-0.235
5.091,-0.262
5.092,-0.274
5.093,-0.277
5.094,-0.298
5.095,-0.331
5.096,-0.356
5.097,-0.379
5.098,-0.394
5.099,-0.405
5.1,-0.415
5.101,-0.425
5.102,-0.434
5.103,-0.442
5.104,-0.478
5.105,-0.523
5.106,-0.513
5.107,-0.522
5.108,-0.55
5.109,-0.565
5.11,-0.575
5.111,-0.579
5.112,-0.584
5.113,-0.595
5.114,-0.607
5.115,-0.603
5.116,-0.614
5.117,-0.586
5.118,-0.561
5.119,-0.572
5.12,-0.557
5.121,-0.554
5.122,-0.578
5.123,-0.545
5.124,-0.467
5.125,-0.461
5.126,-0.468
5.127,-0.449
5.128,-0.436
5.129,-0.429
5.13,-0.4
5.131,-0.386
5.132,-0.386
5.133,-0.371
5.134,-0.36
5.135,-0.329
5.136,-0.311
5.137,-0.298
5.138,-0.28
5.139,-0.271
5.14,-0.248
5.141,-0.234
5.142,-0.227
5.143,-0.223
5.144,-0.235
5.145,-0.244
5.146,-0.233
5.147,-0.234
5.148,-0.234
5.149,-0.227
5.15,-0.234
5.151,-0.23
5.152,-0.209
5.153,-0.213
5.154,-0.218
5.155,-0.211
5.156,-0.217
5.157,-0.213
5.158,-0.209
5.159,-0.21
5.16,-0.209
5.161,-0.202
5.162,-0.205
5.163,-0.203
5.164,-0.176
5.165,-0.166
5.166,-0.172
5.167,-0.182
5.168,-0.176
5.169,-0.2
5.17,-0.224
5.171,-0.21
5.172,-0.208
5.173,-0.168
5.174,-0.156
5.175,-0.175
5.176,-0.182
5.177,-0.196
5.178,-0.196
5.179,-0.195
5.18,-0.165
5.181,-0.166
5.182,-0.174
5.183,-0.169
5.184,-0.17
5.185,-0.169
5.186,-0.179
5.187,-0.185
5.188,-0.193
5.189,-0.19
5.19,-0.165
5.191,-0.152
5.192,-0.172
5.193,-0.19
5.194,-0.187
5.195,-0.189
5.196,-0.192
5.197,-0.179
5.198,-0.17
5.199,-0.159
5.2,-0.163
5.201,-0.172
5.202,-0.169
5.203,-0.166
5.204,-0.17
5.205,-0.18
5.206,-0.179
5.207,-0.195
5.208,-0.183
5.209,-0.164
5.21,-0.169
5.211,-0.18
5.212,-0.182
5.213,-0.186
5.214,-0.196
5.215,-0.177
5.216,-0.178
5.217,-0.186
5.218,-0.181
5.219,-0.168
5.22,-0.159
5.221,-0.156
5.222,-0.15
5.223,-0.16
5.224,-0.164
5.225,-0.176
5.226,-0.183
5.227,-0.211
5.228,-0.212
5.229,-0.155
5.23,-0.141
5.231,-0.144
5.232,-0.17
5.233,-0.18
5.234,-0.18
5.235,-0.179
5.236,-0.168
5.237,-0.166
5.238,-0.161
5.239,-0.152
5.24,-0.149
5.241,-0.156
5.242,-0.157
5.243,-0.16
5.244,-0.152
5.245,-0.154
5.246,-0.157
5.247,-0.154
5.248,-0.154
5.249,-0.145
5.25,-0.158
5.251,-0.166
5.252,-0.162
5.253,-0.154
5.254,-0.146
5.255,-0.146
5.256,-0.148
5.257,-0.132
5.258,-0.114
5.259,-0.116
5.26,-0.096
5.261,-0.082
5.262,-0.12
5.263,-0.142
5.264,-0.116
5.265,-0.096
5.266,-0.095
5.267,-0.104
5.268,-0.109
5.269,-0.117
5.27,-0.102
5.271,-0.09
5.272,-0.105
5.273,-0.111
5.274,-0.123
5.275,-0.107
5.276,-0.082
5.277,-0.074
5.278,-0.071
5.279,-0.06
5.28,-0.053
5.281,-0.055
5.282,-0.069
5.283,-0.07
5.284,-0.058
5.285,-0.072
5.286,-0.055
5.287,-0.034
5.288,-0.057
5.289,-0.066
5.29,-0.058
5.291,-0.059
5.292,-0.053
5.293,-0.042
5.294,-0.029
5.295,-0.026
5.296,-0.033
5.297,-0.034
5.298,-0.012
5.299,-0.007
5.3,-0.023
5.301,-0.021
5.302,-0.006
5.303,0.009
5.304,0.001
5.305,-0.011
5.306,-0.012
5.307,-0.018
5.308,-0.031
5.309,-0.025
5.31,-0.007
5.311,-0.011
5.312,-0.011
5.313,0.001
5.314,0.009
5.315,0.012
5.316,-0.003
5.317,-0.009
5.318,0.002
5.319,0.014
5.32,0.017
5.321,0.02
5.322,0.009
5.323,0.008
5.324,0.025
5.325,0.021
5.326,0.028
5.327,0.011
5.328,0.001
5.329,0.017
5.33,0.009
5.331,0.004
5.332,-0.001
5.333,0.001
5.334,0.014
5.335,0.021
5.336,0.021
5.337,0.027
5.338,0.026
5.339,0.003
5.34,0.017
5.341,0.018
5.342,0.002
5.343,0.019
5.344,0.008
5.345,0.004
5.346,0.004
5.347,-0.021
5.348,-0.002
5.349,0.009
5.35,-0.006
5.351,-0.001
5.352,-0.001
5.353,0
5.354,-0.006
5.355,-0.035
5.356,-0.029
5.357,0.026
5.358,0.025
5.359,0.005
5.36,0.004
5.361,-0.005
5.362,0
5.363,-0.003
5.364,0.014
5.365,-0.003
5.366,-0.035
5.367,-0.027
5.368,-0.016
5.369,-0.015
5.37,-0.019
5.371,-0.005
5.372,-0.016
5.373,-0.042
5.374,-0.061
5.375,-0.047
5.376,-0.032
5.377,-0.059
5.378,-0.059
5.379,-0.036
5.38,-0.026
5.381,-0.032
5.382,-0.047
5.383,-0.052
5.384,-0.048
5.385,-0.057
5.386,-0.06
5.387,-0.064
5.388,-0.064
5.389,-0.068
5.39,-0.066
5.391,-0.069
5.392,-0.076
5.393,-0.072
5.394,-0.082
5.395,-0.069
5.396,-0.07
5.397,-0.08
5.398,-0.059
5.399,-0.065
5.4,-0.086
5.401,-0.053
5.402,-0.033
5.403,-0.057
5.404,-0.064
5.405,-0.077
5.406,-0.073
5.407,-0.077
5.408,-0.086
5.409,-0.086
5.41,-0.095
5.411,-0.084
5.412,-0.059
5.413,-0.067
5.414,-0.087
5.415,-0.09
5.416,-0.105
5.417,-0.101
5.418,-0.102
5.419,-0.091
5.42,-0.074
5.421,-0.078
5.422,-0.108
5.423,-0.132
5.424,-0.094
5.425,-0.092
5.426,-0.097
5.427,-0.1
5.428,-0.114
5.429,-0.132
5.43,-0.149
5.431,-0.118
5.432,-0.098
5.433,-0.1
5.434,-0.11
5.435,-0.112
5.436,-0.109
5.437,-0.111
5.438,-0.103
5.439,-0.101
5.44,-0.1
5.441,-0.095
5.442,-0.103
5.443,-0.108
5.444,-0.097
5.445,-0.111
5.446,-0.117
5.447,-0.114
5.448,-0.14
5.449,-0.14
5.45,-0.121
5.451,-0.105
5.452,-0.102
5.453,-0.117
5.454,-0.133
5.455,-0.126
5.456,-0.134
5.457,-0.118
5.458,-0.084
5.459,-0.095
5.46,-0.096
5.461,-0.097
5.462,-0.103
5.463,-0.123
5.464,-0.117
5.465,-0.098
5.466,-0.096
5.467,-0.062
5.468,-0.07
5.469,-0.122
5.47,-0.136
5.471,-0.132
5.472,-0.12
5.473,-0.108
5.474,-0.103
5.475,-0.099
5.476,-0.11
5.477,-0.107
5.478,-0.101
5.479,-0.095
5.48,-0.095
5.481,-0.1
5.482,-0.091
5.483,-0.088
5.484,-0.092
5.485,-0.099
5.486,-0.099
5.487,-0.089
5.488,-0.093
5.489,-0.092
5.49,-0.089
5.491,-0.1
5.492,-0.096
5.493,-0.095
5.494,-0.106
5.495,-0.108
5.496,-0.086
5.497,-0.084
5.498,-0.083
5.499,-0.073
5.5,-0.071
5.501,-0.079
5.502,-0.105
5.503,-0.098
5.504,-0.098
5.505,-0.085
5.506,-0.077
5.507,-0.101
5.508,-0.095
5.509,-0.085
5.51,-0.081
5.511,-0.09
5.512,-0.087
5.513,-0.081
5.514,-0.073
5.515,-0.09
5.516,-0.093
5.517,-0.063
5.518,-0.085
5.519,-0.078
5.52,-0.074
5.521,-0.086
5.522,-0.089
5.523,-0.079
5.524,-0.057
5.525,-0.08
5.526,-0.079
5.527,-0.071
5.528,-0.08
5.529,-0.083
5.53,-0.077
5.531,-0.08
5.532,-0.086
5.533,-0.083
5.534,-0.083
5.535,-0.071
5.536,-0.064
5.537,-0.063
5.538,-0.065
5.539,-0.067
5.54,-0.062
5.541,-0.063
5.542,-0.07
5.543,-0.069
5.544,-0.066
5.545,-0.074
5.546,-0.078
5.547,-0.079
5.548,-0.081
5.549,-0.084
5.55,-0.086
5.551,-0.086
5.552,-0.09
5.553,-0.088
5.554,-0.085
5.555,-0.08
5.556,-0.081
5.557,-0.08
5.558,-0.074
5.559,-0.071
5.56,-0.06
5.561,-0.054
5.562,-0.086
5.563,-0.1
5.564,-0.082
5.565,-0.085
5.566,-0.086
5.567,-0.098
5.568,-0.132
5.569,-0.119
5.57,-0.079
5.571,-0.08
5.572,-0.095
5.573,-0.093
5.574,-0.06
5.575,-0.072
5.576,-0.103
5.577,-0.095
5.578,-0.101
5.579,-0.081
5.58,-0.045
5.581,-0.054
5.582,-0.054
5.583,-0.045
5.584,-0.094
5.585,-0.109
5.586,-0.095
5.587,-0.098
5.588,-0.098
5.589,-0.101
5.59,-0.093
5.591,-0.099
5.592,-0.102
5.593,-0.095
5.594,-0.087
5.595,-0.093
5.596,-0.097
5.597,-0.076
5.598,-0.082
5.599,-0.081
5.6,-0.078
5.601,-0.077
5.602,-0.068
5.603,-0.076
5.604,-0.076
5.605,-0.075
5.606,-0.078
5.607,-0.079
5.608,-0.081
5.609,-0.081
5.61,-0.085
5.611,-0.089
5.612,-0.086
5.613,-0.092
5.614,-0.092
5.615,-0.088
5.616,-0.093
5.617,-0.09
5.618,-0.086
5.619,-0.078
5.62,-0.083
5.621,-0.105
5.622,-0.127
5.623,-0.105
5.624,-0.069
5.625,-0.078
5.626,-0.095
5.627,-0.1
5.628,-0.104
5.629,-0.086
5.63,-0.081
5.631,-0.1
5.632,-0.1
5.633,-0.101
5.634,-0.088
5.635,-0.076
5.636,-0.079
5.637,-0.081
5.638,-0.068
5.639,-0.071
5.64,-0.072
5.641,-0.059
5.642,-0.073
5.643,-0.045
5.644,-0.041
5.645,-0.066
5.646,-0.058
5.647,-0.053
5.648,-0.034
5.649,-0.029
5.65,-0.049
5.651,-0.069
5.652,-0.045
5.653,-0.021
5.654,-0.048
5.655,-0.04
5.656,-0.051
5.657,-0.059
5.658,-0.037
5.659,-0.041
5.66,-0.043
5.661,-0.032
5.662,-0.022
5.663,-0.045
5.664,-0.05
5.665,-0.065
5.666,-0.085
5.667,-0.08
5.668,-0.086
5.669,-0.085
5.67,-0.074
5.671,-0.07
5.672,-0.072
5.673,-0.072
5.674,-0.054
5.675,-0.05
5.676,-0.018
5.677,0.007
5.678,-0.018
5.679,-0.021
5.68,-0.041
5.681,-0.042
5.682,-0.044
5.683,-0.048
5.684,-0.049
5.685,-0.061
5.686,-0.043
5.687,-0.059
5.688,-0.087
5.689,-0.098
5.69,-0.094
5.691,-0.118
5.692,-0.141
5.693,-0.128
5.694,-0.13
5.695,-0.129
5.696,-0.125
5.697,-0.123
5.698,-0.102
5.699,-0.083
5.7,-0.096
5.701,-0.109
5.702,-0.11
5.703,-0.102
5.704,-0.099
5.705,-0.098
5.706,-0.093
5.707,-0.123
5.708,-0.145
5.709,-0.15
5.71,-0.142
5.711,-0.13
5.712,-0.129
5.713,-0.128
5.714,-0.139
5.715,-0.134
5.716,-0.131
5.717,-0.118
5.718,-0.107
5.719,-0.122
5.72,-0.1
5.721,-0.107
5.722,-0.129
5.723,-0.118
5.724,-0.116
5.725,-0.117
5.726,-0.128
5.727,-0.122
5.728,-0.12
5.729,-0.118
5.73,-0.111
5.731,-0.114
5.732,-0.105
5.733,-0.11
5.734,-0.128
5.735,-0.135
5.736,-0.136
5.737,-0.12
5.738,-0.13
5.739,-0.124
5.74,-0.116
5.741,-0.138
5.742,-0.105
5.743,-0.111
5.744,-0.114
5.745,-0.102
5.746,-0.13
5.747,-0.125
5.748,-0.132
5.749,-0.152
5.75,-0.148
5.751,-0.131
5.752,-0.128
5.753,-0.14
5.754,-0.138
5.755,-0.139
5.756,-0.15
5.757,-0.151
5.758,-0.164
5.759,-0.178
5.76,-0.198
5.761,-0.212
5.762,-0.206
5.763,-0.21
5.764,-0.226
5.765,-0.242
5.766,-0.222
5.767,-0.233
5.768,-0.289
5.769,-0.311
5.77,-0.312
5.771,-0.294
5.772,-0.287
5.773,-0.272
5.774,-0.257
5.775,-0.287
5.776,-0.263
5.777,-0.243
5.778,-0.212
5.779,-0.125
5.78,-0.096
5.781,-0.086
5.782,-0.066
5.783,-0.03
5.784,0.011
5.785,0.038
5.786,0.086
5.787,0.135
5.788,0.176
5.789,0.226
5.79,0.268
5.791,0.311
5.792,0.351
5.793,0.371
5.794,0.385
5.795,0.4
5.796,0.406
5.797,0.416
5.798,0.421
5.799,0.422
5.8,0.416
5.801,0.396
5.802,0.377
5.803,0.337
5.804,0.278
5.805,0.234
5.806,0.211
5.807,0.189
5.808,0.168
5.809,0.148
5.81,0.152
5.811,0.169
5.812,0.163
5.813,0.143
5.814,0.137
5.815,0.123
5.816,0.092
5.817,0.072
5.818,0.043
5.819,0.043
5.82,0.038
5.821,0.022
5.822,0.042
5.823,0.019
5.824,-0.019
5.825,-0.022
5.826,-0.037
5.827,-0.062
5.828,-0.079
5.829,-0.102
5.83,-0.116
5.831,-0.151
5.832,-0.191
5.833,-0.22
5.834,-0.251
5.835,-0.262
5.836,-0.277
5.837,-0.295
5.838,-0.324
5.839,-0.346
5.84,-0.357
5.841,-0.377
5.842,-0.408
5.843,-0.431
5.844,-0.439
5.845,-0.452
5.846,-0.473
5.847,-0.488
5.848,-0.503
5.849,-0.516
5.85,-0.528
5.851,-0.544
5.852,-0.548
5.853,-0.556
5.854,-0.566
5.855,-0.57
5.856,-0.586
5.857,-0.593
5.858,-0.581
5.859,-0.568
5.86,-0.563
5.861,-0.545
5.862,-0.527
5.863,-0.506
5.864,-0.484
5.865,-0.48
5.866,-0.454
5.867,-0.453
5.868,-0.441
5.869,-0.402
5.87,-0.396
5.871,-0.378
5.872,-0.358
5.873,-0.331
5.874,-0.312
5.875,-0.32
5.876,-0.32
5.877,-0.311
5.878,-0.291
5.879,-0.253
5.88,-0.227
5.881,-0.221
5.882,-0.253
5.883,-0.246
5.884,-0.206
5.885,-0.196
5.886,-0.182
5.887,-0.214
5.888,-0.204
5.889,-0.207
5.89,-0.231
5.891,-0.21
5.892,-0.213
5.893,-0.201
5.894,-0.204
5.895,-0.195
5.896,-0.171
5.897,-0.182
5.898,-0.194
5.899,-0.185
5.9,-0.179
5.901,-0.192
5.902,-0.189
5.903,-0.172
5.904,-0.182
5.905,-0.193
5.906,-0.185
5.907,-0.181
5.908,-0.19
5.909,-0.193
5.91,-0.202
5.911,-0.217
5.912,-0.212
5.913,-0.209
5.914,-0.2
5.915,-0.19
5.916,-0.194
5.917,-0.191
5.918,-0.174
5.919,-0.174
5.92,-0.182
5.921,-0.186
5.922,-0.191
5.923,-0.188
5.924,-0.187
5.925,-0.186
5.926,-0.189
5.927,-0.195
5.928,-0.205
5.929,-0.209
5.93,-0.204
5.931,-0.204
5.932,-0.205
5.933,-0.208
5.934,-0.205
5.935,-0.202
5.936,-0.203
5.937,-0.198
5.938,-0.198
5.939,-0.2
5.94,-0.193
5.941,-0.189
5.942,-0.207
5.943,-0.207
5.944,-0.205
5.945,-0.206
5.946,-0.174
5.947,-0.184
5.948,-0.213
5.949,-0.221
5.95,-0.216
5.951,-0.224
5.952,-0.23
5.953,-0.233
5.954,-0.21
5.955,-0.163
5.956,-0.209
5.957,-0.24
5.958,-0.222
5.959,-0.221
5.96,-0.177
5.961,-0.173
5.962,-0.208
5.963,-0.217
5.964,-0.211
5.965,-0.197
5.966,-0.202
5.967,-0.2
5.968,-0.198
5.969,-0.204
5.97,-0.205
5.971,-0.206
5.972,-0.203
5.973,-0.208
5.974,-0.213
5.975,-0.209
5.976,-0.204
5.977,-0.197
5.978,-0.2
5.979,-0.201
5.98,-0.192
5.981,-0.188
5.982,-0.196
5.983,-0.195
5.984,-0.19
5.985,-0.195
5.986,-0.192
5.987,-0.178
5.988,-0.169
5.989,-0.171
5.99,-0.181
5.991,-0.196
5.992,-0.206
5.993,-0.202
5.994,-0.19
5.995,-0.176
5.996,-0.189
5.997,-0.196
5.998,-0.173
5.999,-0.172
6,-0.162
6.001,-0.152
6.002,-0.163
6.003,-0.164
6.004,-0.161
6.005,-0.153
6.006,-0.151
6.007,-0.169
6.008,-0.172
6.009,-0.141
6.01,-0.152
6.011,-0.181
6.012,-0.172
6.013,-0.17
6.014,-0.145
6.015,-0.121
6.016,-0.117
6.017,-0.122
6.018,-0.113
6.019,-0.098
6.02,-0.094
6.021,-0.095
6.022,-0.105
6.023,-0.087
6.024,-0.08
6.025,-0.081
6.026,-0.075
6.027,-0.08
6.028,-0.087
6.029,-0.084
6.03,-0.073
6.031,-0.084
6.032,-0.079
6.033,-0.058
6.034,-0.052
6.035,-0.057
6.036,-0.038
6.037,-0.021
6.038,-0.041
6.039,-0.066
6.04,-0.058
6.041,-0.026
6.042,-0.012
6.043,-0.017
6.044,-0.025
6.045,-0.042
6.046,-0.036
6.047,-0.018
6.048,-0.034
6.049,-0.029
6.05,-0.021
6.051,-0.029
6.052,-0.02
6.053,-0.028
6.054,-0.035
6.055,0.009
6.056,0.035
6.057,-0.003
6.058,-0.008
6.059,-0.003
6.06,-0.021
6.061,-0.007
6.062,-0.003
6.063,0.009
6.064,0.022
6.065,0.003
6.066,-0.009
6.067,-0.018
6.068,-0.018
6.069,-0.004
6.07,0
6.071,-0.002
6.072,0.007
6.073,0.022
6.074,0.018
6.075,0.004
6.076,0
6.077,0.002
6.078,0.005
6.079,0.004
6.08,0.003
6.081,0.001
6.082,0.002
6.083,0
6.084,0.014
6.085,0.03
6.086,0.004
6.087,-0.019
6.088,-0.026
6.089,-0.023
6.09,-0.016
6.091,-0.003
6.092,0.007
6.093,-0.003
6.094,-0.004
6.095,-0.016
6.096,-0.014
6.097,-0.005
6.098,-0.007
6.099,-0.011
6.1,-0.018
6.101,-0.023
6.102,-0.024
6.103,0.001
6.104,-0.004
6.105,-0.019
6.106,-0.023
6.107,-0.024
6.108,-0.038
6.109,-0.054
6.11,-0.061
6.111,-0.065
6.112,-0.03
6.113,-0.016
6.114,-0.034
6.115,-0.045
6.116,-0.045
6.117,-0.045
6.118,-0.043
6.119,-0.03
6.12,-0.032
6.121,-0.041
6.122,-0.044
6.123,-0.034
6.124,-0.039
6.125,-0.046
6.126,-0.047
6.127,-0.054
6.128,-0.058
6.129,-0.069
6.13,-0.082
6.131,-0.099
6.132,-0.099
6.133,-0.097
6.134,-0.094
6.135,-0.086
6.136,-0.087
6.137,-0.082
6.138,-0.079
6.139,-0.081
6.14,-0.084
6.141,-0.087
6.142,-0.091
6.143,-0.086
6.144,-0.096
6.145,-0.102
6.146,-0.1
6.147,-0.111
6.148,-0.101
6.149,-0.107
6.15,-0.118
6.151,-0.117
6.152,-0.117
6.153,-0.117
6.154,-0.108
6.155,-0.099
6.156,-0.105
6.157,-0.108
6.158,-0.109
6.159,-0.12
6.16,-0.127
6.161,-0.095
6.162,-0.096
6.163,-0.124
6.164,-0.153
6.165,-0.142
6.166,-0.085
6.167,-0.105
6.168,-0.116
6.169,-0.099
6.17,-0.111
6.171,-0.116
6.172,-0.097
6.173,-0.079
6.174,-0.078
6.175,-0.099
6.176,-0.127
6.177,-0.104
6.178,-0.105
6.179,-0.127
6.18,-0.118
6.181,-0.112
6.182,-0.103
6.183,-0.097
6.184,-0.117
6.185,-0.128
6.186,-0.122
6.187,-0.127
6.188,-0.119
6.189,-0.133
6.19,-0.143
6.191,-0.133
6.192,-0.126
6.193,-0.134
6.194,-0.141
6.195,-0.133
6.196,-0.13
6.197,-0.129
6.198,-0.137
6.199,-0.143
6.2,-0.135
6.201,-0.134
6.202,-0.136
6.203,-0.13
6.204,-0.134
6.205,-0.137
6.206,-0.137
6.207,-0.136
6.208,-0.133
6.209,-0.131
6.21,-0.146
6.211,-0.152
6.212,-0.142
6.213,-0.146
6.214,-0.14
6.215,-0.137
6.216,-0.137
6.217,-0.13
6.218,-0.127
6.219,-0.127
6.22,-0.126
6.221,-0.132
6.222,-0.141
6.223,-0.13
6.224,-0.132
6.225,-0.133
6.226,-0.13
6.227,-0.137
6.228,-0.141
6.229,-0.144
6.23,-0.147
6.231,-0.146
6.232,-0.146
6.233,-0.149
6.234,-0.147
6.235,-0.152
6.236,-0.151
6.237,-0.145
6.238,-0.143
6.239,-0.145
6.24,-0.149
6.241,-0.149
6.242,-0.159
6.243,-0.147
6.244,-0.141
6.245,-0.147
6.246,-0.121
6.247,-0.126
6.248,-0.166
6.249,-0.175
6.25,-0.165
6.251,-0.161
6.252,-0.158
6.253,-0.157
6.254,-0.149
6.255,-0.141
6.256,-0.137
6.257,-0.136
6.258,-0.144
6.259,-0.133
6.26,-0.14
6.261,-0.156
6.262,-0.161
6.263,-0.154
6.264,-0.16
6.265,-0.174
6.266,-0.184
6.267,-0.178
6.268,-0.151
6.269,-0.161
6.27,-0.135
6.271,-0.131
6.272,-0.162
6.273,-0.153
6.274,-0.158
6.275,-0.14
6.276,-0.143
6.277,-0.154
6.278,-0.127
6.279,-0.121
6.28,-0.13
6.281,-0.142
6.282,-0.135
6.283,-0.134
6.284,-0.147
6.285,-0.133
6.286,-0.157
6.287,-0.174
6.288,-0.159
6.289,-0.158
6.29,-0.155
6.291,-0.161
6.292,-0.155
6.293,-0.151
6.294,-0.16
6.295,-0.147
6.296,-0.134
6.297,-0.129
6.298,-0.146
6.299,-0.156
6.3,-0.119
6.301,-0.116
6.302,-0.141
6.303,-0.146
6.304,-0.15
6.305,-0.154
6.306,-0.139
6.307,-0.143
6.308,-0.172
6.309,-0.166
6.31,-0.146
6.311,-0.14
6.312,-0.152
6.313,-0.172
6.314,-0.15
6.315,-0.159
6.316,-0.16
6.317,-0.148
6.318,-0.161
6.319,-0.136
6.32,-0.127
6.321,-0.131
6.322,-0.141
6.323,-0.144
6.324,-0.131
6.325,-0.136
6.326,-0.145
6.327,-0.143
6.328,-0.155
6.329,-0.155
6.33,-0.15
6.331,-0.148
6.332,-0.134
6.333,-0.145
6.334,-0.128
6.335,-0.115
6.336,-0.142
6.337,-0.143
6.338,-0.128
6.339,-0.135
6.34,-0.137
6.341,-0.136
6.342,-0.155
6.343,-0.158
6.344,-0.154
6.345,-0.136
6.346,-0.141
6.347,-0.153
6.348,-0.144
6.349,-0.14
6.35,-0.135
6.351,-0.129
6.352,-0.134
6.353,-0.155
6.354,-0.16
6.355,-0.167
6.356,-0.16
6.357,-0.133
6.358,-0.13
6.359,-0.134
6.36,-0.122
6.361,-0.131
6.362,-0.138
6.363,-0.131
6.364,-0.144
6.365,-0.158
6.366,-0.162
6.367,-0.167
6.368,-0.144
6.369,-0.142
6.37,-0.166
6.371,-0.16
6.372,-0.154
6.373,-0.157
6.374,-0.143
6.375,-0.114
6.376,-0.113
6.377,-0.113
6.378,-0.1
6.379,-0.095
6.38,-0.089
6.381,-0.095
6.382,-0.095
6.383,-0.086
6.384,-0.094
6.385,-0.088
6.386,-0.056
6.387,-0.061
6.388,-0.105
6.389,-0.123
6.39,-0.099
6.391,-0.064
6.392,-0.051
6.393,-0.067
6.394,-0.067
6.395,-0.079
6.396,-0.089
6.397,-0.053
6.398,-0.056
6.399,-0.083
6.4,-0.084
6.401,-0.086
6.402,-0.088
6.403,-0.083
6.404,-0.089
6.405,-0.108
6.406,-0.131
6.407,-0.128
6.408,-0.106
6.409,-0.098
6.41,-0.09
6.411,-0.086
6.412,-0.086
6.413,-0.08
6.414,-0.072
6.415,-0.065
6.416,-0.067
6.417,-0.082
6.418,-0.088
6.419,-0.055
6.42,-0.04
6.421,-0.068
6.422,-0.077
6.423,-0.074
6.424,-0.08
6.425,-0.082
6.426,-0.101
6.427,-0.117
6.428,-0.114
6.429,-0.114
6.43,-0.12
6.431,-0.141
6.432,-0.163
6.433,-0.161
6.434,-0.143
6.435,-0.144
6.436,-0.136
6.437,-0.118
6.438,-0.136
6.439,-0.144
6.44,-0.137
6.441,-0.152
6.442,-0.158
6.443,-0.152
6.444,-0.148
6.445,-0.164
6.446,-0.174
6.447,-0.172
6.448,-0.176
6.449,-0.182
6.45,-0.188
6.451,-0.2
6.452,-0.205
6.453,-0.185
6.454,-0.186
6.455,-0.162
6.456,-0.135
6.457,-0.144
6.458,-0.13
6.459,-0.126
6.46,-0.141
6.461,-0.15
6.462,-0.154
6.463,-0.141
6.464,-0.141
6.465,-0.158
6.466,-0.152
6.467,-0.149
6.468,-0.16
6.469,-0.148
6.47,-0.145
6.471,-0.151
6.472,-0.137
6.473,-0.149
6.474,-0.167
6.475,-0.161
6.476,-0.14
6.477,-0.147
6.478,-0.175
6.479,-0.14
6.48,-0.129
6.481,-0.163
6.482,-0.168
6.483,-0.167
6.484,-0.164
6.485,-0.162
6.486,-0.166
6.487,-0.17
6.488,-0.174
6.489,-0.17
6.49,-0.175
6.491,-0.176
6.492,-0.177
6.493,-0.172
6.494,-0.161
6.495,-0.174
6.496,-0.18
6.497,-0.179
6.498,-0.178
6.499,-0.181
6.5,-0.192
6.501,-0.203
6.502,-0.216
6.503,-0.246
6.504,-0.265
6.505,-0.263
6.506,-0.292
6.507,-0.331
6.508,-0.336
6.509,-0.325
6.51,-0.337
6.511,-0.34
6.512,-0.347
6.513,-0.35
6.514,-0.346
6.515,-0.355
6.516,-0.34
6.517,-0.312
6.518,-0.281
6.519,-0.271
6.52,-0.248
6.521,-0.216
6.522,-0.183
6.523,-0.137
6.524,-0.12
6.525,-0.101
6.526,-0.054
6.527,-0.032
6.528,-0.016
6.529,0.055
6.53,0.127
6.531,0.181
6.532,0.231
6.533,0.255
6.534,0.278
6.535,0.296
6.536,0.307
6.537,0.346
6.538,0.363
6.539,0.372
6.54,0.407
6.541,0.388
6.542,0.364
6.543,0.381
6.544,0.365
6.545,0.313
6.546,0.252
6.547,0.206
6.548,0.151
6.549,0.138
6.55,0.163
6.551,0.176
6.552,0.198
6.553,0.192
6.554,0.191
6.555,0.174
6.556,0.149
6.557,0.15
6.558,0.152
6.559,0.159
6.56,0.144
6.561,0.115
6.562,0.077
6.563,0.031
6.564,0.002
6.565,0
6.566,-0.011
6.567,-0.038
6.568,-0.057
6.569,-0.079
6.57,-0.099
6.571,-0.096
6.572,-0.102
6.573,-0.151
6.574,-0.213
6.575,-0.256
6.576,-0.277
6.577,-0.291
6.578,-0.289
6.579,-0.296
6.58,-0.338
6.581,-0.375
6.582,-0.399
6.583,-0.423
6.584,-0.438
6.585,-0.446
6.586,-0.467
6.587,-0.48
6.588,-0.497
6.589,-0.523
6.59,-0.526
6.591,-0.539
6.592,-0.56
6.593,-0.564
6.594,-0.565
6.595,-0.562
6.596,-0.568
6.597,-0.592
6.598,-0.603
6.599,-0.616
6.6,-0.601
6.601,-0.584
6.602,-0.606
6.603,-0.619
6.604,-0.605
6.605,-0.569
6.606,-0.554
6.607,-0.525
6.608,-0.489
6.609,-0.491
6.61,-0.482
6.611,-0.455
6.612,-0.442
6.613,-0.418
6.614,-0.382
6.615,-0.374
6.616,-0.359
6.617,-0.344
6.618,-0.333
6.619,-0.305
6.62,-0.281
6.621,-0.274
6.622,-0.278
6.623,-0.271
6.624,-0.27
6.625,-0.264
6.626,-0.234
6.627,-0.233
6.628,-0.261
6.629,-0.246
6.63,-0.235
6.631,-0.244
6.632,-0.242
6.633,-0.226
6.634,-0.216
6.635,-0.218
6.636,-0.203
6.637,-0.19
6.638,-0.171
6.639,-0.168
6.64,-0.172
6.641,-0.18
6.642,-0.184
6.643,-0.191
6.644,-0.194
6.645,-0.185
6.646,-0.196
6.647,-0.202
6.648,-0.202
6.649,-0.175
6.65,-0.157
6.651,-0.19
6.652,-0.234
6.653,-0.229
6.654,-0.229
6.655,-0.237
6.656,-0.198
6.657,-0.19
6.658,-0.196
6.659,-0.179
6.66,-0.174
6.661,-0.18
6.662,-0.175
6.663,-0.175
6.664,-0.203
6.665,-0.209
6.666,-0.222
6.667,-0.237
6.668,-0.213
6.669,-0.199
6.67,-0.201
6.671,-0.202
6.672,-0.197
6.673,-0.195
6.674,-0.184
6.675,-0.176
6.676,-0.207
6.677,-0.22
6.678,-0.209
6.679,-0.203
6.68,-0.184
6.681,-0.186
6.682,-0.196
6.683,-0.204
6.684,-0.212
6.685,-0.199
6.686,-0.192
6.687,-0.18
6.688,-0.189
6.689,-0.214
6.69,-0.22
6.691,-0.22
6.692,-0.207
6.693,-0.202
6.694,-0.198
6.695,-0.216
6.696,-0.217
6.697,-0.178
6.698,-0.169
6.699,-0.173
6.7,-0.178
6.701,-0.195
6.702,-0.2
6.703,-0.195
6.704,-0.191
6.705,-0.179
6.706,-0.186
6.707,-0.205
6.708,-0.203
6.709,-0.2
6.71,-0.197
6.711,-0.191
6.712,-0.183
6.713,-0.179
6.714,-0.172
6.715,-0.158
6.716,-0.192
6.717,-0.205
6.718,-0.189
6.719,-0.183
6.72,-0.172
6.721,-0.181
6.722,-0.18
6.723,-0.17
6.724,-0.178
6.725,-0.178
6.726,-0.165
6.727,-0.163
6.728,-0.173
6.729,-0.179
6.73,-0.174
6.731,-0.184
6.732,-0.191
6.733,-0.176
6.734,-0.155
6.735,-0.155
6.736,-0.158
6.737,-0.157
6.738,-0.169
6.739,-0.155
6.74,-0.136
6.741,-0.132
6.742,-0.132
6.743,-0.135
6.744,-0.141
6.745,-0.146
6.746,-0.111
6.747,-0.104
6.748,-0.128
6.749,-0.097
6.75,-0.101
6.751,-0.11
6.752,-0.126
6.753,-0.146
6.754,-0.107
6.755,-0.098
6.756,-0.107
6.757,-0.108
6.758,-0.093
6.759,-0.085
6.76,-0.104
6.761,-0.095
6.762,-0.066
6.763,-0.056
6.764,-0.07
6.765,-0.073
6.766,-0.068
6.767,-0.077
6.768,-0.084
6.769,-0.072
6.77,-0.066
6.771,-0.066
6.772,-0.062
6.773,-0.056
6.774,-0.045
6.775,-0.044
6.776,-0.049
6.777,-0.045
6.778,-0.03
6.779,-0.027
6.78,-0.031
6.781,-0.036
6.782,-0.031
6.783,-0.025
6.784,-0.03
6.785,-0.028
6.786,-0.019
6.787,-0.021
6.788,-0.026
6.789,-0.021
6.79,-0.024
6.791,-0.011
6.792,-0.005
6.793,0.003
6.794,0.018
6.795,0.025
6.796,0.019
6.797,0.001
6.798,0.018
6.799,0.014
6.8,0.013
6.801,0.051
6.802,0.045
6.803,0.02
6.804,0.022
6.805,0.018
6.806,0.013
6.807,0.026
6.808,0.035
6.809,0.018
6.81,0.011
6.811,0.033
6.812,0.024
6.813,0.013
6.814,0.015
6.815,0.023
6.816,0.042
6.817,0.028
6.818,0.017
6.819,0.029
6.82,0.041
6.821,0.053
6.822,0.072
6.823,0.056
6.824,0.017
6.825,0.028
6.826,0.038
6.827,0.023
6.828,0.022
6.829,0.033
6.83,0.021
6.831,0.022
6.832,0.03
6.833,0.017
6.834,0.013
6.835,0.021
6.836,0.029
6.837,0.017
6.838,0.011
6.839,0.018
6.84,0.029
6.841,0.032
6.842,0.03
6.843,0.029
6.844,0.004
6.845,0.009
6.846,-0.003
6.847,-0.014
6.848,0.009
6.849,0.003
6.85,-0.01
6.851,-0.019
6.852,-0.015
6.853,0.002
6.854,0.013
6.855,0.001
6.856,0.003
6.857,-0.002
6.858,-0.024
6.859,-0.02
6.86,-0.016
6.861,-0.025
6.862,-0.024
6.863,-0.024
6.864,-0.03
6.865,-0.026
6.866,-0.04
6.867,-0.043
6.868,-0.04
6.869,-0.077
6.87,-0.089
6.871,-0.043
6.872,-0.028
6.873,-0.047
6.874,-0.058
6.875,-0.073
6.876,-0.074
6.877,-0.064
6.878,-0.058
6.879,-0.055
6.88,-0.047
6.881,-0.023
6.882,-0.029
6.883,-0.077
6.884,-0.09
6.885,-0.077
6.886,-0.071
6.887,-0.058
6.888,-0.067
6.889,-0.07
6.89,-0.07
6.891,-0.08
6.892,-0.071
6.893,-0.069
6.894,-0.069
6.895,-0.07
6.896,-0.061
6.897,-0.048
6.898,-0.07
6.899,-0.09
6.9,-0.085
6.901,-0.075
6.902,-0.058
6.903,-0.07
6.904,-0.077
6.905,-0.085
6.906,-0.098
6.907,-0.068
6.908,-0.077
6.909,-0.1
6.91,-0.094
6.911,-0.089
6.912,-0.091
6.913,-0.095
6.914,-0.091
6.915,-0.082
6.916,-0.075
6.917,-0.092
6.918,-0.093
6.919,-0.076
6.92,-0.076
6.921,-0.071
6.922,-0.063
6.923,-0.078
6.924,-0.058
6.925,-0.05
6.926,-0.078
6.927,-0.085
6.928,-0.091
6.929,-0.095
6.93,-0.095
6.931,-0.109
6.932,-0.133
6.933,-0.111
6.934,-0.073
6.935,-0.071
6.936,-0.077
6.937,-0.065
6.938,-0.062
6.939,-0.081
6.94,-0.082
6.941,-0.067
6.942,-0.058
6.943,-0.068
6.944,-0.08
6.945,-0.089
6.946,-0.092
6.947,-0.082
6.948,-0.088
6.949,-0.09
6.95,-0.086
6.951,-0.091
6.952,-0.097
6.953,-0.082
6.954,-0.089
6.955,-0.116
6.956,-0.075
6.957,-0.053
6.958,-0.068
6.959,-0.103
6.96,-0.112
6.961,-0.075
6.962,-0.066
6.963,-0.076
6.964,-0.094
6.965,-0.087
6.966,-0.082
6.967,-0.097
6.968,-0.103
6.969,-0.109
6.97,-0.106
6.971,-0.099
6.972,-0.114
6.973,-0.102
6.974,-0.091
6.975,-0.096
6.976,-0.091
6.977,-0.079
6.978,-0.065
6.979,-0.077
6.98,-0.09
6.981,-0.089
6.982,-0.078
6.983,-0.087
6.984,-0.096
6.985,-0.088
6.986,-0.092
6.987,-0.093
6.988,-0.091
6.989,-0.085
6.99,-0.085
6.991,-0.098
6.992,-0.096
6.993,-0.089
6.994,-0.087
6.995,-0.082
6.996,-0.081
6.997,-0.091
6.998,-0.096
6.999,-0.102
7,-0.104
7.001,-0.099
7.002,-0.098
7.003,-0.066
7.004,-0.057
7.005,-0.074
7.006,-0.074
7.007,-0.076
7.008,-0.065
7.009,-0.061
7.01,-0.085
7.011,-0.091
7.012,-0.095
7.013,-0.075
7.014,-0.061
7.015,-0.089
7.016,-0.082
7.017,-0.09
7.018,-0.081
7.019,-0.043
7.02,-0.07
7.021,-0.09
7.022,-0.086
7.023,-0.089
7.024,-0.092
7.025,-0.087
7.026,-0.085
7.027,-0.095
7.028,-0.105
7.029,-0.095
7.03,-0.098
7.031,-0.102
7.032,-0.09
7.033,-0.096
7.034,-0.086
7.035,-0.075
7.036,-0.073
7.037,-0.071
7.038,-0.07
7.039,-0.06
7.04,-0.071
7.041,-0.083
7.042,-0.082
7.043,-0.072
7.044,-0.061
7.045,-0.061
7.046,-0.066
7.047,-0.073
7.048,-0.07
7.049,-0.073
7.05,-0.076
7.051,-0.059
7.052,-0.067
7.053,-0.083
7.054,-0.091
7.055,-0.093
7.056,-0.079
7.057,-0.073
7.058,-0.076
7.059,-0.083
7.06,-0.088
7.061,-0.081
7.062,-0.069
7.063,-0.074
7.064,-0.075
7.065,-0.058
7.066,-0.066
7.067,-0.089
7.068,-0.086
7.069,-0.08
7.07,-0.103
7.071,-0.102
7.072,-0.073
7.073,-0.089
7.074,-0.121
7.075,-0.106
7.076,-0.079
7.077,-0.061
7.078,-0.044
7.079,-0.059
7.08,-0.063
7.081,-0.066
7.082,-0.067
7.083,-0.048
7.084,-0.059
7.085,-0.072
7.086,-0.081
7.087,-0.074
7.088,-0.066
7.089,-0.082
7.09,-0.084
7.091,-0.074
7.092,-0.076
7.093,-0.091
7.094,-0.086
7.095,-0.067
7.096,-0.063
7.097,-0.058
7.098,-0.045
7.099,-0.059
7.1,-0.11
7.101,-0.088
7.102,-0.023
7.103,-0.051
7.104,-0.044
7.105,-0.042
7.106,-0.053
7.107,-0.023
7.108,-0.027
7.109,-0.012
7.11,-0.018
7.111,0.002
7.112,0.004
7.113,-0.007
7.114,0
7.115,-0.025
7.116,-0.015
7.117,-0.009
7.118,-0.013
7.119,0.005
7.12,0.015
7.121,-0.007
7.122,-0.019
7.123,-0.021
7.124,-0.023
7.125,-0.033
7.126,-0.009
7.127,0.011
7.128,-0.021
7.129,-0.059
7.13,-0.076
7.131,-0.059
7.132,-0.058
7.133,-0.042
7.134,-0.036
7.135,-0.037
7.136,-0.025
7.137,-0.015
7.138,-0.004
7.139,-0.005
7.14,0.001
7.141,-0.015
7.142,-0.024
7.143,-0.017
7.144,-0.031
7.145,-0.048
7.146,-0.044
7.147,-0.05
7.148,-0.057
7.149,-0.069
7.15,-0.079
7.151,-0.087
7.152,-0.111
7.153,-0.086
7.154,-0.084
7.155,-0.106
7.156,-0.108
7.157,-0.085
7.158,-0.057
7.159,-0.086
7.16,-0.108
7.161,-0.112
7.162,-0.096
7.163,-0.091
7.164,-0.092
7.165,-0.096
7.166,-0.104
7.167,-0.092
7.168,-0.111
7.169,-0.122
7.17,-0.118
7.171,-0.104
7.172,-0.098
7.173,-0.112
7.174,-0.1
7.175,-0.107
7.176,-0.124
7.177,-0.116
7.178,-0.102
7.179,-0.095
7.18,-0.107
7.181,-0.115
7.182,-0.103
7.183,-0.099
7.184,-0.092
7.185,-0.089
7.186,-0.102
7.187,-0.11
7.188,-0.12
7.189,-0.126
7.19,-0.118
7.191,-0.111
7.192,-0.118
7.193,-0.123
7.194,-0.108
7.195,-0.106
7.196,-0.11
7.197,-0.103
7.198,-0.104
7.199,-0.097
7.2,-0.092
7.201,-0.102
7.202,-0.095
7.203,-0.106
7.204,-0.109
7.205,-0.11
7.206,-0.119
7.207,-0.115
7.208,-0.114
7.209,-0.128
7.21,-0.131
7.211,-0.113
7.212,-0.117
7.213,-0.12
7.214,-0.12
7.215,-0.12
7.216,-0.115
7.217,-0.108
7.218,-0.108
7.219,-0.117
7.22,-0.126
7.221,-0.127
7.222,-0.133
7.223,-0.145
7.224,-0.148
7.225,-0.172
7.226,-0.192
7.227,-0.206
7.228,-0.225
7.229,-0.231
7.23,-0.246
7.231,-0.262
7.232,-0.27
7.233,-0.271
7.234,-0.265
7.235,-0.281
7.236,-0.295
7.237,-0.271
7.238,-0.262
7.239,-0.264
7.24,-0.241
7.241,-0.222
7.242,-0.184
7.243,-0.164
7.244,-0.145
7.245,-0.108
7.246,-0.087
7.247,-0.06
7.248,-0.029
7.249,0.008
7.25,0.05
7.251,0.079
7.252,0.117
7.253,0.168
7.254,0.24
7.255,0.296
7.256,0.327
7.257,0.354
7.258,0.376
7.259,0.408
7.26,0.421
7.261,0.433
7.262,0.452
7.263,0.428
7.264,0.417
7.265,0.418
7.266,0.401
7.267,0.369
7.268,0.326
7.269,0.294
7.27,0.274
7.271,0.248
7.272,0.228
7.273,0.223
7.274,0.224
7.275,0.222
7.276,0.229
7.277,0.239
7.278,0.231
7.279,0.218
7.28,0.177
7.281,0.15
7.282,0.154
7.283,0.135
7.284,0.114
7.285,0.081
7.286,0.059
7.287,0.049
7.288,0.022
7.289,0.003
7.29,-0.009
7.291,-0.028
7.292,-0.05
7.293,-0.065
7.294,-0.085
7.295,-0.113
7.296,-0.152
7.297,-0.187
7.298,-0.203
7.299,-0.216
7.3,-0.235
7.301,-0.247
7.302,-0.252
7.303,-0.28
7.304,-0.312
7.305,-0.333
7.306,-0.368
7.307,-0.379
7.308,-0.387
7.309,-0.416
7.31,-0.423
7.311,-0.446
7.312,-0.45
7.313,-0.443
7.314,-0.465
7.315,-0.473
7.316,-0.483
7.317,-0.492
7.318,-0.504
7.319,-0.511
7.32,-0.498
7.321,-0.536
7.322,-0.525
7.323,-0.49
7.324,-0.527
7.325,-0.522
7.326,-0.512
7.327,-0.522
7.328,-0.522
7.329,-0.508
7.33,-0.494
7.331,-0.49
7.332,-0.471
7.333,-0.437
7.334,-0.407
7.335,-0.415
7.336,-0.385
7.337,-0.337
7.338,-0.316
7.339,-0.291
7.34,-0.283
7.341,-0.274
7.342,-0.276
7.343,-0.268
7.344,-0.224
7.345,-0.206
7.346,-0.21
7.347,-0.23
7.348,-0.239
7.349,-0.212
7.35,-0.178
7.351,-0.178
7.352,-0.173
7.353,-0.162
7.354,-0.184
7.355,-0.165
7.356,-0.133
7.357,-0.131
7.358,-0.131
7.359,-0.126
7.36,-0.141
7.361,-0.147
7.362,-0.137
7.363,-0.144
7.364,-0.142
7.365,-0.134
7.366,-0.136
7.367,-0.144
7.368,-0.144
7.369,-0.159
7.37,-0.153
7.371,-0.135
7.372,-0.144
7.373,-0.128
7.374,-0.141
7.375,-0.148
7.376,-0.154
7.377,-0.144
7.378,-0.111
7.379,-0.12
7.38,-0.106
7.381,-0.126
7.382,-0.13
7.383,-0.116
7.384,-0.122
7.385,-0.122
7.386,-0.142
7.387,-0.141
7.388,-0.147
7.389,-0.17
7.39,-0.151
7.391,-0.141
7.392,-0.126
7.393,-0.1
7.394,-0.116
7.395,-0.145
7.396,-0.161
7.397,-0.131
7.398,-0.14
7.399,-0.141
7.4,-0.107
7.401,-0.112
7.402,-0.117
7.403,-0.12
7.404,-0.127
7.405,-0.129
7.406,-0.128
7.407,-0.146
7.408,-0.144
7.409,-0.141
7.41,-0.134
7.411,-0.101
7.412,-0.108
7.413,-0.136
7.414,-0.144
7.415,-0.142
7.416,-0.131
7.417,-0.117
7.418,-0.126
7.419,-0.134
7.42,-0.117
7.421,-0.097
7.422,-0.107
7.423,-0.101
7.424,-0.093
7.425,-0.13
7.426,-0.129
7.427,-0.118
7.428,-0.124
7.429,-0.132
7.43,-0.136
7.431,-0.133
7.432,-0.135
7.433,-0.116
7.434,-0.106
7.435,-0.104
7.436,-0.106
7.437,-0.107
7.438,-0.089
7.439,-0.098
7.44,-0.098
7.441,-0.089
7.442,-0.099
7.443,-0.11
7.444,-0.113
7.445,-0.092
7.446,-0.091
7.447,-0.099
7.448,-0.098
7.449,-0.098
7.45,-0.085
7.451,-0.086
7.452,-0.094
7.453,-0.089
7.454,-0.09
7.455,-0.083
7.456,-0.069
7.457,-0.066
7.458,-0.063
7.459,-0.056
7.46,-0.056
7.461,-0.055
7.462,-0.05
7.463,-0.054
7.464,-0.049
7.465,-0.051
7.466,-0.058
7.467,-0.062
7.468,-0.071
7.469,-0.043
7.47,-0.03
7.471,-0.059
7.472,-0.069
7.473,-0.052
7.474,-0.047
7.475,-0.043
7.476,-0.033
7.477,-0.026
7.478,-0.02
7.479,-0.012
7.48,-0.018
7.481,-0.004
7.482,0.004
7.483,-0.024
7.484,-0.013
7.485,-0.005
7.486,-0.008
7.487,-0.004
7.488,-0.009
7.489,-0.006
7.49,0.004
7.491,-0.005
7.492,-0.017
7.493,-0.009
7.494,-0.016
7.495,-0.013
7.496,0.002
7.497,0.018
7.498,0.045
7.499,0.042
7.5,0.04
7.501,0.032
7.502,0.051
7.503,0.058
7.504,0.029
7.505,0.044
7.506,0.065
7.507,0.072
7.508,0.058
7.509,0.051
7.51,0.051
7.511,0.052
7.512,0.05
7.513,0.058
7.514,0.084
7.515,0.084
7.516,0.082
7.517,0.086
7.518,0.092
7.519,0.095
7.52,0.089
7.521,0.091
7.522,0.096
7.523,0.09
7.524,0.091
7.525,0.095
7.526,0.093
7.527,0.104
7.528,0.107
7.529,0.104
7.53,0.1
7.531,0.091
7.532,0.09
7.533,0.097
7.534,0.11
7.535,0.116
7.536,0.13
7.537,0.132
7.538,0.106
7.539,0.112
7.54,0.098
7.541,0.083
7.542,0.096
7.543,0.096
7.544,0.101
7.545,0.103
7.546,0.108
7.547,0.099
7.548,0.091
7.549,0.093
7.55,0.092
7.551,0.098
7.552,0.096
7.553,0.099
7.554,0.096
7.555,0.097
7.556,0.125
7.557,0.118
7.558,0.085
7.559,0.083
7.56,0.086
7.561,0.085
7.562,0.09
7.563,0.089
7.564,0.093
7.565,0.092
7.566,0.093
7.567,0.086
7.568,0.079
7.569,0.079
7.57,0.062
7.571,0.059
7.572,0.062
7.573,0.068
7.574,0.07
7.575,0.07
7.576,0.076
7.577,0.076
7.578,0.072
7.579,0.076
7.58,0.084
7.581,0.072
7.582,0.053
7.583,0.045
7.584,0.054
7.585,0.038
7.586,0.006
7.587,0
7.588,0.016
7.589,0.034
7.59,0.039
7.591,0.015
7.592,0.016
7.593,0.041
7.594,0.028
7.595,0.024
7.596,0.014
7.597,0.029
7.598,0.041
7.599,0.018
7.6,0.017
7.601,0.033
7.602,0.027
7.603,0.028
7.604,0.037
7.605,-0.011
7.606,-0.009
7.607,0.028
7.608,0.006
7.609,-0.005
7.61,0.01
7.611,0.015
7.612,0.004
7.613,-0.009
7.614,-0.007
7.615,-0.004
7.616,-0.018
7.617,-0.021
7.618,-0.013
7.619,-0.009
7.62,-0.013
7.621,-0.018
7.622,-0.024
7.623,-0.025
7.624,-0.021
7.625,-0.033
7.626,-0.029
7.627,-0.016
7.628,-0.03
7.629,-0.039
7.63,-0.026
7.631,-0.042
7.632,-0.026
7.633,-0.005
7.634,-0.032
7.635,-0.058
7.636,-0.095
7.637,-0.062
7.638,0.004
7.639,-0.007
7.64,-0.044
7.641,-0.048
7.642,-0.037
7.643,-0.033
7.644,-0.026
7.645,-0.036
7.646,-0.06
7.647,-0.07
7.648,-0.065
7.649,-0.048
7.65,-0.056
7.651,-0.074
7.652,-0.05
7.653,-0.042
7.654,-0.053
7.655,-0.061
7.656,-0.053
7.657,-0.033
7.658,-0.035
7.659,-0.033
7.66,-0.043
7.661,-0.053
7.662,-0.066
7.663,-0.051
7.664,-0.04
7.665,-0.067
7.666,-0.062
7.667,-0.069
7.668,-0.088
7.669,-0.08
7.67,-0.056
7.671,-0.054
7.672,-0.064
7.673,-0.072
7.674,-0.056
7.675,-0.029
7.676,-0.04
7.677,-0.04
7.678,-0.026
7.679,-0.05
7.68,-0.059
7.681,-0.042
7.682,-0.043
7.683,-0.057
7.684,-0.076
7.685,-0.07
7.686,-0.045
7.687,-0.061
7.688,-0.072
7.689,-0.065
7.69,-0.066
7.691,-0.062
7.692,-0.046
7.693,-0.046
7.694,-0.064
7.695,-0.056
7.696,-0.044
7.697,-0.037
7.698,-0.035
7.699,-0.034
7.7,-0.038
7.701,-0.032
7.702,-0.04
7.703,-0.067
7.704,-0.049
7.705,-0.051
7.706,-0.068
7.707,-0.068
7.708,-0.07
7.709,-0.068
7.71,-0.057
7.711,-0.047
7.712,-0.05
7.713,-0.045
7.714,-0.05
7.715,-0.032
7.716,-0.029
7.717,-0.052
7.718,-0.041
7.719,-0.046
7.72,-0.065
7.721,-0.051
7.722,-0.033
7.723,-0.048
7.724,-0.07
7.725,-0.067
7.726,-0.065
7.727,-0.064
7.728,-0.069
7.729,-0.073
7.73,-0.072
7.731,-0.07
7.732,-0.051
7.733,-0.045
7.734,-0.056
7.735,-0.049
7.736,-0.046
7.737,-0.043
7.738,-0.048
7.739,-0.051
7.74,-0.047
7.741,-0.049
7.742,-0.039
7.743,-0.051
7.744,-0.052
7.745,-0.046
7.746,-0.054
7.747,-0.046
7.748,-0.047
7.749,-0.061
7.75,-0.064
7.751,-0.061
7.752,-0.059
7.753,-0.056
7.754,-0.052
7.755,-0.042
7.756,-0.035
7.757,-0.029
7.758,-0.029
7.759,-0.038
7.76,-0.038
7.761,-0.033
7.762,-0.039
7.763,-0.044
7.764,-0.054
7.765,-0.058
7.766,-0.054
7.767,-0.078
7.768,-0.071
7.769,-0.049
7.77,-0.058
7.771,-0.053
7.772,-0.067
7.773,-0.06
7.774,-0.018
7.775,-0.044
7.776,-0.057
7.777,-0.033
7.778,-0.043
7.779,-0.025
7.78,-0.015
7.781,-0.028
7.782,-0.028
7.783,-0.029
7.784,-0.038
7.785,-0.042
7.786,-0.038
7.787,-0.062
7.788,-0.066
7.789,-0.054
7.79,-0.059
7.791,-0.066
7.792,-0.058
7.793,-0.046
7.794,-0.029
7.795,-0.025
7.796,-0.038
7.797,-0.048
7.798,-0.059
7.799,-0.065
7.8,-0.059
7.801,-0.037
7.802,-0.037
7.803,-0.05
7.804,-0.058
7.805,-0.058
7.806,-0.036
7.807,-0.052
7.808,-0.073
7.809,-0.058
7.81,-0.048
7.811,-0.074
7.812,-0.08
7.813,-0.047
7.814,-0.052
7.815,-0.045
7.816,-0.04
7.817,-0.059
7.818,-0.063
7.819,-0.06
7.82,-0.056
7.821,-0.058
7.822,-0.056
7.823,-0.056
7.824,-0.059
7.825,-0.049
7.826,-0.039
7.827,-0.043
7.828,-0.057
7.829,-0.059
7.83,-0.049
7.831,-0.046
7.832,-0.045
7.833,-0.048
7.834,-0.024
7.835,-0.002
7.836,-0.009
7.837,0.01
7.838,0.018
7.839,0.015
7.84,0.02
7.841,0.022
7.842,0.021
7.843,0.017
7.844,0.013
7.845,0.006
7.846,0.018
7.847,0.001
7.848,-0.013
7.849,-0.021
7.85,-0.035
7.851,-0.021
7.852,-0.013
7.853,-0.009
7.854,-0.012
7.855,-0.011
7.856,-0.009
7.857,-0.017
7.858,-0.021
7.859,-0.024
7.86,-0.021
7.861,-0.012
7.862,-0.011
7.863,-0.015
7.864,-0.006
7.865,-0.007
7.866,-0.008
7.867,-0.011
7.868,-0.019
7.869,-0.017
7.87,-0.045
7.871,-0.058
7.872,-0.038
7.873,-0.029
7.874,-0.012
7.875,-0.009
7.876,-0.001
7.877,-0.043
7.878,-0.083
7.879,-0.045
7.88,-0.038
7.881,-0.05
7.882,-0.056
7.883,-0.054
7.884,-0.047
7.885,-0.068
7.886,-0.095
7.887,-0.086
7.888,-0.076
7.889,-0.051
7.89,-0.053
7.891,-0.104
7.892,-0.089
7.893,-0.098
7.894,-0.105
7.895,-0.084
7.896,-0.081
7.897,-0.059
7.898,-0.06
7.899,-0.078
7.9,-0.096
7.901,-0.098
7.902,-0.089
7.903,-0.084
7.904,-0.078
7.905,-0.095
7.906,-0.102
7.907,-0.102
7.908,-0.108
7.909,-0.113
7.91,-0.114
7.911,-0.12
7.912,-0.116
7.913,-0.09
7.914,-0.086
7.915,-0.09
7.916,-0.082
7.917,-0.088
7.918,-0.099
7.919,-0.116
7.92,-0.109
7.921,-0.082
7.922,-0.112
7.923,-0.135
7.924,-0.133
7.925,-0.118
7.926,-0.125
7.927,-0.126
7.928,-0.1
7.929,-0.109
7.93,-0.108
7.931,-0.11
7.932,-0.104
7.933,-0.106
7.934,-0.103
7.935,-0.099
7.936,-0.098
7.937,-0.09
7.938,-0.088
7.939,-0.086
7.94,-0.118
7.941,-0.112
7.942,-0.099
7.943,-0.096
7.944,-0.083
7.945,-0.088
7.946,-0.09
7.947,-0.128
7.948,-0.172
7.949,-0.171
7.95,-0.147
7.951,-0.168
7.952,-0.188
7.953,-0.167
7.954,-0.179
7.955,-0.221
7.956,-0.236
7.957,-0.232
7.958,-0.221
7.959,-0.238
7.96,-0.269
7.961,-0.239
7.962,-0.231
7.963,-0.27
7.964,-0.303
7.965,-0.299
7.966,-0.247
7.967,-0.212
7.968,-0.225
7.969,-0.209
7.97,-0.159
7.971,-0.141
7.972,-0.096
7.973,-0.034
7.974,-0.028
7.975,0.02
7.976,0.095
7.977,0.102
7.978,0.138
7.979,0.2
7.98,0.244
7.981,0.294
7.982,0.33
7.983,0.361
7.984,0.385
7.985,0.399
7.986,0.397
7.987,0.398
7.988,0.41
7.989,0.405
7.99,0.412
7.991,0.422
7.992,0.409
7.993,0.382
7.994,0.344
7.995,0.288
7.996,0.259
7.997,0.245
7.998,0.21
7.999,0.192
8,0.198
8.001,0.214
8.002,0.208
8.003,0.209
8.004,0.202
8.005,0.17
8.006,0.142
8.007,0.117
8.008,0.126
8.009,0.122
8.01,0.111
8.011,0.089
8.012,0.043
8.013,0.016
8.014,0.018
8.015,0.021
8.016,-0.012
8.017,-0.008
8.018,-0.018
8.019,-0.067
8.02,-0.078
8.021,-0.084
8.022,-0.118
8.023,-0.151
8.024,-0.189
8.025,-0.216
8.026,-0.214
8.027,-0.259
8.028,-0.313
8.029,-0.345
8.03,-0.355
8.031,-0.363
8.032,-0.373
8.033,-0.38
8.034,-0.399
8.035,-0.405
8.036,-0.416
8.037,-0.426
8.038,-0.431
8.039,-0.444
8.04,-0.469
8.041,-0.49
8.042,-0.514
8.043,-0.555
8.044,-0.532
8.045,-0.51
8.046,-0.542
8.047,-0.57
8.048,-0.572
8.049,-0.549
8.05,-0.552
8.051,-0.534
8.052,-0.516
8.053,-0.522
8.054,-0.504
8.055,-0.476
8.056,-0.446
8.057,-0.432
8.058,-0.416
8.059,-0.402
8.06,-0.396
8.061,-0.376
8.062,-0.346
8.063,-0.318
8.064,-0.326
8.065,-0.325
8.066,-0.301
8.067,-0.292
8.068,-0.281
8.069,-0.267
8.07,-0.247
8.071,-0.234
8.072,-0.221
8.073,-0.212
8.074,-0.19
8.075,-0.184
8.076,-0.206
8.077,-0.196
8.078,-0.184
8.079,-0.184
8.08,-0.191
8.081,-0.179
8.082,-0.17
8.083,-0.181
8.084,-0.182
8.085,-0.182
8.086,-0.163
8.087,-0.164
8.088,-0.179
8.089,-0.168
8.09,-0.176
8.091,-0.188
8.092,-0.176
8.093,-0.173
8.094,-0.17
8.095,-0.142
8.096,-0.125
8.097,-0.127
8.098,-0.129
8.099,-0.142
8.1,-0.154
8.101,-0.146
8.102,-0.144
8.103,-0.136
8.104,-0.141
8.105,-0.167
8.106,-0.158
8.107,-0.183
8.108,-0.194
8.109,-0.155
8.11,-0.154
8.111,-0.168
8.112,-0.165
8.113,-0.157
8.114,-0.158
8.115,-0.153
8.116,-0.155
8.117,-0.153
8.118,-0.14
8.119,-0.146
8.12,-0.163
8.121,-0.161
8.122,-0.154
8.123,-0.151
8.124,-0.142
8.125,-0.148
8.126,-0.155
8.127,-0.164
8.128,-0.162
8.129,-0.17
8.13,-0.164
8.131,-0.166
8.132,-0.174
8.133,-0.132
8.134,-0.152
8.135,-0.153
8.136,-0.128
8.137,-0.138
8.138,-0.144
8.139,-0.141
8.14,-0.159
8.141,-0.157
8.142,-0.133
8.143,-0.152
8.144,-0.169
8.145,-0.192
8.146,-0.191
8.147,-0.174
8.148,-0.16
8.149,-0.15
8.15,-0.152
8.151,-0.189
8.152,-0.194
8.153,-0.146
8.154,-0.159
8.155,-0.157
8.156,-0.141
8.157,-0.139
8.158,-0.132
8.159,-0.149
8.16,-0.163
8.161,-0.155
8.162,-0.158
8.163,-0.164
8.164,-0.159
8.165,-0.155
8.166,-0.157
8.167,-0.163
8.168,-0.138
8.169,-0.127
8.17,-0.163
8.171,-0.177
8.172,-0.163
8.173,-0.146
8.174,-0.141
8.175,-0.136
8.176,-0.136
8.177,-0.138
8.178,-0.118
8.179,-0.128
8.18,-0.144
8.181,-0.132
8.182,-0.133
8.183,-0.141
8.184,-0.138
8.185,-0.129
8.186,-0.128
8.187,-0.127
8.188,-0.128
8.189,-0.129
8.19,-0.141
8.191,-0.15
8.192,-0.126
8.193,-0.103
8.194,-0.098
8.195,-0.104
8.196,-0.103
8.197,-0.093
8.198,-0.093
8.199,-0.094
8.2,-0.103
8.201,-0.1
8.202,-0.079
8.203,-0.071
8.204,-0.068
8.205,-0.07
8.206,-0.08
8.207,-0.082
8.208,-0.077
8.209,-0.064
8.21,-0.06
8.211,-0.061
8.212,-0.056
8.213,-0.061
8.214,-0.051
8.215,-0.034
8.216,-0.036
8.217,-0.041
8.218,-0.031
8.219,-0.015
8.22,-0.01
8.221,-0.014
8.222,-0.015
8.223,-0.01
8.224,-0.028
8.225,-0.046
8.226,-0.026
8.227,0.007
8.228,-0.001
8.229,-0.028
8.23,-0.038
8.231,-0.011
8.232,0.04
8.233,0.015
8.234,-0.003
8.235,0.012
8.236,0.03
8.237,0.052
8.238,0.061
8.239,0.068
8.24,0.031
8.241,0.014
8.242,0.025
8.243,0.044
8.244,0.07
8.245,0.058
8.246,0.029
8.247,0.028
8.248,0.036
8.249,0.035
8.25,0.033
8.251,0.026
8.252,0.036
8.253,0.05
8.254,0.056
8.255,0.055
8.256,0.05
8.257,0.047
8.258,0.048
8.259,0.048
8.26,0.045
8.261,0.032
8.262,0.036
8.263,0.043
8.264,0.026
8.265,0.041
8.266,0.04
8.267,0.043
8.268,0.042
8.269,0.047
8.27,0.041
8.271,0.022
8.272,0.037
8.273,0.033
8.274,0.044
8.275,0.053
8.276,0.056
8.277,0.047
8.278,0.043
8.279,0.057
8.28,0.042
8.281,0.041
8.282,0.036
8.283,0.033
8.284,0.029
8.285,0.019
8.286,0.037
8.287,0.042
8.288,0.024
8.289,0.018
8.29,0.012
8.291,-0.011
8.292,0.019
8.293,0.05
8.294,0.026
8.295,0.037
8.296,0.043
8.297,0.029
8.298,0.036
8.299,0.028
8.3,0.019
8.301,0.011
8.302,0.015
8.303,0.024
8.304,0.011
8.305,0.018
8.306,0.013
8.307,0
8.308,0.007
8.309,0.004
8.31,0.003
8.311,0.002
8.312,-0.015
8.313,-0.019
8.314,-0.002
8.315,-0.001
8.316,-0.004
8.317,-0.004
8.318,-0.005
8.319,-0.016
8.32,-0.026
8.321,-0.003
8.322,-0.013
8.323,-0.026
8.324,-0.043
8.325,-0.037
8.326,-0.017
8.327,-0.044
8.328,-0.083
8.329,-0.087
8.33,-0.046
8.331,-0.051
8.332,-0.061
8.333,-0.048
8.334,-0.051
8.335,-0.056
8.336,-0.05
8.337,-0.063
8.338,-0.042
8.339,-0.025
8.34,-0.058
8.341,-0.064
8.342,-0.057
8.343,-0.037
8.344,-0.054
8.345,-0.048
8.346,-0.065
8.347,-0.109
8.348,-0.098
8.349,-0.116
8.35,-0.107
8.351,-0.085
8.352,-0.071
8.353,-0.073
8.354,-0.1
8.355,-0.087
8.356,-0.072
8.357,-0.063
8.358,-0.067
8.359,-0.1
8.36,-0.086
8.361,-0.071
8.362,-0.092
8.363,-0.084
8.364,-0.068
8.365,-0.065
8.366,-0.081
8.367,-0.09
8.368,-0.086
8.369,-0.089
8.37,-0.082
8.371,-0.083
8.372,-0.093
8.373,-0.083
8.374,-0.073
8.375,-0.09
8.376,-0.091
8.377,-0.072
8.378,-0.07
8.379,-0.071
8.38,-0.079
8.381,-0.073
8.382,-0.09
8.383,-0.098
8.384,-0.074
8.385,-0.081
8.386,-0.091
8.387,-0.096
8.388,-0.097
8.389,-0.101
8.39,-0.117
8.391,-0.127
8.392,-0.102
8.393,-0.086
8.394,-0.103
8.395,-0.1
8.396,-0.071
8.397,-0.075
8.398,-0.092
8.399,-0.081
8.4,-0.088
8.401,-0.098
8.402,-0.095
8.403,-0.097
8.404,-0.1
8.405,-0.096
8.406,-0.091
8.407,-0.102
8.408,-0.116
8.409,-0.11
8.41,-0.105
8.411,-0.098
8.412,-0.104
8.413,-0.148
8.414,-0.132
8.415,-0.087
8.416,-0.073
8.417,-0.092
8.418,-0.091
8.419,-0.051
8.42,-0.073
8.421,-0.095
8.422,-0.107
8.423,-0.13
8.424,-0.122
8.425,-0.113
8.426,-0.113
8.427,-0.114
8.428,-0.121
8.429,-0.104
8.43,-0.102
8.431,-0.129
8.432,-0.117
8.433,-0.112
8.434,-0.105
8.435,-0.092
8.436,-0.091
8.437,-0.088
8.438,-0.086
8.439,-0.092
8.44,-0.103
8.441,-0.096
8.442,-0.085
8.443,-0.077
8.444,-0.09
8.445,-0.099
8.446,-0.093
8.447,-0.1
8.448,-0.107
8.449,-0.105
8.45,-0.106
8.451,-0.104
8.452,-0.107
8.453,-0.107
8.454,-0.099
8.455,-0.102
8.456,-0.092
8.457,-0.093
8.458,-0.088
8.459,-0.09
8.46,-0.104
8.461,-0.085
8.462,-0.082
8.463,-0.106
8.464,-0.108
8.465,-0.117
8.466,-0.112
8.467,-0.075
8.468,-0.085
8.469,-0.105
8.47,-0.109
8.471,-0.117
8.472,-0.115
8.473,-0.125
8.474,-0.111
8.475,-0.096
8.476,-0.098
8.477,-0.083
8.478,-0.079
8.479,-0.092
8.48,-0.103
8.481,-0.098
8.482,-0.095
8.483,-0.096
8.484,-0.104
8.485,-0.117
8.486,-0.116
8.487,-0.103
8.488,-0.1
8.489,-0.108
8.49,-0.111
8.491,-0.113
8.492,-0.104
8.493,-0.102
8.494,-0.11
8.495,-0.107
8.496,-0.115
8.497,-0.111
8.498,-0.086
8.499,-0.091
8.5,-0.092
8.501,-0.1
8.502,-0.111
8.503,-0.096
8.504,-0.098
8.505,-0.105
8.506,-0.127
8.507,-0.127
8.508,-0.116
8.509,-0.121
8.51,-0.12
8.511,-0.12
8.512,-0.073
8.513,-0.064
8.514,-0.137
8.515,-0.176
8.516,-0.137
8.517,-0.095
8.518,-0.098
8.519,-0.121
8.52,-0.121
8.521,-0.111
8.522,-0.12
8.523,-0.096
8.524,-0.097
8.525,-0.124
8.526,-0.133
8.527,-0.144
8.528,-0.132
8.529,-0.105
8.53,-0.107
8.531,-0.122
8.532,-0.112
8.533,-0.111
8.534,-0.109
8.535,-0.103
8.536,-0.112
8.537,-0.117
8.538,-0.118
8.539,-0.134
8.54,-0.128
8.541,-0.116
8.542,-0.112
8.543,-0.107
8.544,-0.11
8.545,-0.089
8.546,-0.089
8.547,-0.109
8.548,-0.113
8.549,-0.105
8.55,-0.11
8.551,-0.117
8.552,-0.118
8.553,-0.114
8.554,-0.101
8.555,-0.107
8.556,-0.116
8.557,-0.085
8.558,-0.058
8.559,-0.088
8.56,-0.101
8.561,-0.092
8.562,-0.09
8.563,-0.083
8.564,-0.084
8.565,-0.083
8.566,-0.086
8.567,-0.082
8.568,-0.077
8.569,-0.073
8.57,-0.07
8.571,-0.067
8.572,-0.048
8.573,-0.038
8.574,-0.039
8.575,-0.044
8.576,-0.036
8.577,-0.024
8.578,-0.034
8.579,-0.054
8.58,-0.035
8.581,0.002
8.582,-0.017
8.583,-0.033
8.584,-0.03
8.585,-0.054
8.586,-0.081
8.587,-0.068
8.588,-0.051
8.589,-0.059
8.59,-0.091
8.591,-0.128
8.592,-0.08
8.593,-0.051
8.594,-0.062
8.595,-0.059
8.596,-0.073
8.597,-0.056
8.598,-0.043
8.599,-0.034
8.6,-0.025
8.601,-0.038
8.602,-0.036
8.603,-0.025
8.604,-0.041
8.605,-0.046
8.606,-0.029
8.607,-0.03
8.608,-0.046
8.609,-0.059
8.61,-0.065
8.611,-0.067
8.612,-0.082
8.613,-0.089
8.614,-0.067
8.615,-0.061
8.616,-0.077
8.617,-0.086
8.618,-0.09
8.619,-0.104
8.62,-0.11
8.621,-0.121
8.622,-0.122
8.623,-0.118
8.624,-0.096
8.625,-0.087
8.626,-0.136
8.627,-0.139
8.628,-0.117
8.629,-0.117
8.63,-0.137
8.631,-0.148
8.632,-0.138
8.633,-0.148
8.634,-0.128
8.635,-0.122
8.636,-0.133
8.637,-0.108
8.638,-0.104
8.639,-0.1
8.64,-0.119
8.641,-0.141
8.642,-0.14
8.643,-0.134
8.644,-0.121
8.645,-0.135
8.646,-0.147
8.647,-0.157
8.648,-0.163
8.649,-0.137
8.65,-0.117
8.651,-0.117
8.652,-0.124
8.653,-0.127
8.654,-0.115
8.655,-0.111
8.656,-0.109
8.657,-0.105
8.658,-0.1
8.659,-0.116
8.66,-0.137
8.661,-0.123
8.662,-0.119
8.663,-0.105
8.664,-0.102
8.665,-0.142
8.666,-0.145
8.667,-0.133
8.668,-0.131
8.669,-0.129
8.67,-0.124
8.671,-0.128
8.672,-0.144
8.673,-0.141
8.674,-0.131
8.675,-0.114
8.676,-0.119
8.677,-0.117
8.678,-0.105
8.679,-0.14
8.68,-0.146
8.681,-0.142
8.682,-0.152
8.683,-0.157
8.684,-0.167
8.685,-0.165
8.686,-0.175
8.687,-0.183
8.688,-0.217
8.689,-0.237
8.69,-0.234
8.691,-0.237
8.692,-0.238
8.693,-0.257
8.694,-0.275
8.695,-0.289
8.696,-0.285
8.697,-0.294
8.698,-0.29
8.699,-0.287
8.7,-0.292
8.701,-0.281
8.702,-0.281
8.703,-0.264
8.704,-0.248
8.705,-0.237
8.706,-0.196
8.707,-0.163
8.708,-0.138
8.709,-0.097
8.71,-0.08
8.711,-0.021
8.712,0.028
8.713,0.055
8.714,0.119
8.715,0.176
8.716,0.218
8.717,0.252
8.718,0.291
8.719,0.337
8.72,0.382
8.721,0.4
8.722,0.405
8.723,0.414
8.724,0.411
8.725,0.403
8.726,0.397
8.727,0.412
8.728,0.41
8.729,0.386
8.73,0.352
8.731,0.291
8.732,0.259
8.733,0.236
8.734,0.209
8.735,0.203
8.736,0.2
8.737,0.193
8.738,0.189
8.739,0.195
8.74,0.195
8.741,0.172
8.742,0.155
8.743,0.14
8.744,0.122
8.745,0.121
8.746,0.114
8.747,0.091
8.748,0.06
8.749,0.033
8.75,0.022
8.751,0.026
8.752,0.018
8.753,-0.005
8.754,-0.011
8.755,-0.021
8.756,-0.062
8.757,-0.095
8.758,-0.124
8.759,-0.16
8.76,-0.154
8.761,-0.171
8.762,-0.228
8.763,-0.267
8.764,-0.292
8.765,-0.325
8.766,-0.337
8.767,-0.334
8.768,-0.365
8.769,-0.389
8.77,-0.414
8.771,-0.443
8.772,-0.449
8.773,-0.456
8.774,-0.456
8.775,-0.452
8.776,-0.469
8.777,-0.499
8.778,-0.517
8.779,-0.536
8.78,-0.535
8.781,-0.525
8.782,-0.561
8.783,-0.61
8.784,-0.6
8.785,-0.588
8.786,-0.573
8.787,-0.56
8.788,-0.56
8.789,-0.523
8.79,-0.524
8.791,-0.523
8.792,-0.496
8.793,-0.441
8.794,-0.384
8.795,-0.389
8.796,-0.369
8.797,-0.369
8.798,-0.377
8.799,-0.346
8.8,-0.322
8.801,-0.294
8.802,-0.276
8.803,-0.266
8.804,-0.263
8.805,-0.256
8.806,-0.254
8.807,-0.238
8.808,-0.214
8.809,-0.218
8.81,-0.213
8.811,-0.198
8.812,-0.197
8.813,-0.196
8.814,-0.178
8.815,-0.157
8.816,-0.158
8.817,-0.16
8.818,-0.159
8.819,-0.163
8.82,-0.15
8.821,-0.143
8.822,-0.144
8.823,-0.141
8.824,-0.144
8.825,-0.151
8.826,-0.149
8.827,-0.151
8.828,-0.159
8.829,-0.143
8.83,-0.154
8.831,-0.161
8.832,-0.138
8.833,-0.157
8.834,-0.15
8.835,-0.135
8.836,-0.144
8.837,-0.115
8.838,-0.116
8.839,-0.139
8.84,-0.138
8.841,-0.134
8.842,-0.129
8.843,-0.133
8.844,-0.141
8.845,-0.151
8.846,-0.142
8.847,-0.141
8.848,-0.132
8.849,-0.122
8.85,-0.145
8.851,-0.148
8.852,-0.135
8.853,-0.134
8.854,-0.14
8.855,-0.138
8.856,-0.118
8.857,-0.122
8.858,-0.146
8.859,-0.146
8.86,-0.134
8.861,-0.111
8.862,-0.12
8.863,-0.131
8.864,-0.101
8.865,-0.116
8.866,-0.149
8.867,-0.157
8.868,-0.158
8.869,-0.144
8.87,-0.156
8.871,-0.176
8.872,-0.169
8.873,-0.144
8.874,-0.139
8.875,-0.146
8.876,-0.135
8.877,-0.124
8.878,-0.128
8.879,-0.144
8.88,-0.139
8.881,-0.136
8.882,-0.126
8.883,-0.118
8.884,-0.128
8.885,-0.123
8.886,-0.136
8.887,-0.138
8.888,-0.152
8.889,-0.14
8.89,-0.126
8.891,-0.134
8.892,-0.098
8.893,-0.1
8.894,-0.099
8.895,-0.114
8.896,-0.137
8.897,-0.121
8.898,-0.11
8.899,-0.108
8.9,-0.116
8.901,-0.118
8.902,-0.129
8.903,-0.135
8.904,-0.143
8.905,-0.138
8.906,-0.117
8.907,-0.126
8.908,-0.136
8.909,-0.129
8.91,-0.13
8.911,-0.122
8.912,-0.114
8.913,-0.111
8.914,-0.115
8.915,-0.121
8.916,-0.111
8.917,-0.106
8.918,-0.112
8.919,-0.107
8.92,-0.102
8.921,-0.106
8.922,-0.107
8.923,-0.105
8.924,-0.108
8.925,-0.11
8.926,-0.112
8.927,-0.106
8.928,-0.089
8.929,-0.089
8.93,-0.121
8.931,-0.105
8.932,-0.067
8.933,-0.088
8.934,-0.091
8.935,-0.094
8.936,-0.073
8.937,-0.033
8.938,-0.029
8.939,-0.03
8.94,-0.045
8.941,-0.03
8.942,-0.034
8.943,-0.067
8.944,-0.074
8.945,-0.059
8.946,-0.051
8.947,-0.049
8.948,-0.04
8.949,-0.051
8.95,-0.053
8.951,-0.038
8.952,-0.03
8.953,-0.038
8.954,-0.044
8.955,-0.043
8.956,-0.022
8.957,-0.015
8.958,-0.029
8.959,-0.008
8.96,-0.001
8.961,0.002
8.962,-0.001
8.963,-0.003
8.964,0.004
8.965,-0.013
8.966,-0.008
8.967,-0.015
8.968,-0.015
8.969,0.01
8.97,0.015
8.971,0.015
8.972,0.019
8.973,0.016
8.974,0.018
8.975,0.022
8.976,0.02
8.977,0.029
8.978,0.026
8.979,0.037
8.98,0.049
8.981,0.035
8.982,0.061
8.983,0.054
8.984,0.017
8.985,0.012
8.986,0.008
8.987,0.001
8.988,-0.004
8.989,0.001
8.99,0.039
8.991,0.054
8.992,0.023
8.993,0.035
8.994,0.057
8.995,0.066
8.996,0.061
8.997,0.051
8.998,0.05
8.999,0.046
9,0.073
9.001,0.07
9.002,0.052
9.003,0.068
9.004,0.054
9.005,0.033
9.006,0.045
9.007,0.05
9.008,0.036
9.009,0.036
9.01,0.042
9.011,0.045
9.012,0.04
9.013,0.048
9.014,0.056
9.015,0.045
9.016,0.043
9.017,0.051
9.018,0.059
9.019,0.051
9.02,0.038
9.021,0.04
9.022,0.045
9.023,0.042
9.024,0.028
9.025,0.02
9.026,0.024
9.027,0.024
9.028,0.017
9.029,0.018
9.03,0.018
9.031,0.025
9.032,0.04
9.033,0.032
9.034,0.013
9.035,0.022
9.036,0.044
9.037,0.043
9.038,0.027
9.039,0.015
9.04,0.011
9.041,0.024
9.042,0.025
9.043,-0.005
9.044,-0.011
9.045,0.003
9.046,0.006
9.047,-0.009
9.048,-0.025
9.049,-0.014
9.05,0.006
9.051,0.013
9.052,0.008
9.053,0.004
9.054,0.003
9.055,-0.005
9.056,0.009
9.057,0.013
9.058,-0.003
9.059,0.003
9.06,0.001
9.061,-0.015
9.062,-0.018
9.063,-0.018
9.064,-0.017
9.065,-0.015
9.066,-0.019
9.067,-0.029
9.068,-0.045
9.069,-0.037
9.07,-0.062
9.071,-0.067
9.072,-0.014
9.073,0.004
9.074,-0.003
9.075,-0.018
9.076,-0.018
9.077,-0.013
9.078,-0.026
9.079,-0.023
9.08,-0.021
9.081,-0.021
9.082,0.007
9.083,-0.032
9.084,-0.052
9.085,-0.032
9.086,-0.038
9.087,-0.024
9.088,-0.022
9.089,-0.034
9.09,-0.045
9.091,-0.034
9.092,-0.021
9.093,-0.033
9.094,-0.053
9.095,-0.051
9.096,-0.042
9.097,-0.04
9.098,-0.019
9.099,-0.022
9.1,-0.029
9.101,-0.03
9.102,-0.035
9.103,-0.048
9.104,-0.041
9.105,-0.029
9.106,-0.057
9.107,-0.063
9.108,-0.049
9.109,-0.044
9.11,-0.057
9.111,-0.06
9.112,-0.039
9.113,-0.059
9.114,-0.077
9.115,-0.059
9.116,-0.038
9.117,-0.037
9.118,-0.05
9.119,-0.016
9.12,-0.025
9.121,-0.067
9.122,-0.066
9.123,-0.064
9.124,-0.062
9.125,-0.061
9.126,-0.06
9.127,-0.064
9.128,-0.059
9.129,-0.062
9.13,-0.058
9.131,-0.058
9.132,-0.073
9.133,-0.057
9.134,-0.055
9.135,-0.051
9.136,-0.037
9.137,-0.047
9.138,-0.05
9.139,-0.055
9.14,-0.059
9.141,-0.042
9.142,-0.039
9.143,-0.072
9.144,-0.082
9.145,-0.062
9.146,-0.076
9.147,-0.085
9.148,-0.072
9.149,-0.069
9.15,-0.067
9.151,-0.046
9.152,-0.046
9.153,-0.053
9.154,-0.049
9.155,-0.048
9.156,-0.038
9.157,-0.029
9.158,-0.035
9.159,-0.044
9.16,-0.045
9.161,-0.056
9.162,-0.056
9.163,-0.053
9.164,-0.06
9.165,-0.06
9.166,-0.06
9.167,-0.064
9.168,-0.067
9.169,-0.055
9.17,-0.048
9.171,-0.049
9.172,-0.05
9.173,-0.044
9.174,-0.034
9.175,-0.041
9.176,-0.034
9.177,-0.027
9.178,-0.033
9.179,-0.044
9.18,-0.047
9.181,-0.03
9.182,-0.054
9.183,-0.064
9.184,-0.06
9.185,-0.049
9.186,-0.047
9.187,-0.059
9.188,-0.016
9.189,0.006
9.19,-0.029
9.191,-0.051
9.192,-0.051
9.193,-0.07
9.194,-0.076
9.195,-0.048
9.196,-0.028
9.197,-0.047
9.198,-0.046
9.199,-0.017
9.2,-0.022
9.201,-0.037
9.202,-0.028
9.203,-0.033
9.204,-0.048
9.205,-0.06
9.206,-0.065
9.207,-0.058
9.208,-0.059
9.209,-0.059
9.21,-0.053
9.211,-0.042
9.212,-0.044
9.213,-0.052
9.214,-0.043
9.215,-0.033
9.216,-0.024
9.217,-0.019
9.218,-0.035
9.219,-0.041
9.22,-0.033
9.221,-0.043
9.222,-0.046
9.223,-0.047
9.224,-0.057
9.225,-0.062
9.226,-0.069
9.227,-0.077
9.228,-0.065
9.229,-0.054
9.23,-0.052
9.231,-0.053
9.232,-0.062
9.233,-0.062
9.234,-0.056
9.235,-0.048
9.236,-0.044
9.237,-0.029
9.238,-0.024
9.239,-0.041
9.24,-0.051
9.241,-0.061
9.242,-0.06
9.243,-0.058
9.244,-0.077
9.245,-0.071
9.246,-0.07
9.247,-0.075
9.248,-0.053
9.249,-0.076
9.25,-0.097
9.251,-0.07
9.252,-0.051
9.253,-0.046
9.254,-0.034
9.255,-0.025
9.256,-0.026
9.257,-0.029
9.258,-0.034
9.259,-0.047
9.26,-0.05
9.261,-0.052
9.262,-0.04
9.263,-0.014
9.264,-0.015
9.265,-0.037
9.266,-0.058
9.267,-0.048
9.268,-0.056
9.269,-0.035
9.27,-0.017
9.271,-0.029
9.272,-0.033
9.273,-0.05
9.274,-0.044
9.275,-0.053
9.276,-0.053
9.277,-0.037
9.278,-0.043
9.279,-0.041
9.28,-0.042
9.281,-0.035
9.282,-0.028
9.283,-0.028
9.284,-0.033
9.285,-0.043
9.286,-0.044
9.287,-0.048
9.288,-0.017
9.289,-0.01
9.29,-0.026
9.291,-0.018
9.292,-0.021
9.293,-0.007
9.294,-0.004
9.295,-0.01
9.296,-0.021
9.297,-0.005
9.298,0.029
9.299,0.03
9.3,0.035
9.301,0.028
9.302,0.019
9.303,0.037
9.304,0.023
9.305,-0.002
9.306,0.007
9.307,0.009
9.308,0.025
9.309,0.01
9.31,-0.019
9.311,-0.009
9.312,-0.013
9.313,-0.015
9.314,-0.007
9.315,-0.007
9.316,0.014
9.317,0.014
9.318,-0.007
9.319,0
9.32,-0.003
9.321,-0.013
9.322,-0.019
9.323,0.011
9.324,0.034
9.325,0.018
9.326,-0.002
9.327,-0.024
9.328,-0.012
9.329,-0.004
9.33,-0.017
9.331,-0.019
9.332,-0.026
9.333,-0.033
9.334,-0.042
9.335,-0.051
9.336,-0.051
9.337,-0.035
9.338,-0.044
9.339,-0.059
9.34,-0.053
9.341,-0.061
9.342,-0.061
9.343,-0.067
9.344,-0.071
9.345,-0.073
9.346,-0.076
9.347,-0.077
9.348,-0.065
9.349,-0.07
9.35,-0.092
9.351,-0.095
9.352,-0.092
9.353,-0.077
9.354,-0.075
9.355,-0.08
9.356,-0.087
9.357,-0.057
9.358,-0.063
9.359,-0.084
9.36,-0.07
9.361,-0.109
9.362,-0.104
9.363,-0.099
9.364,-0.12
9.365,-0.109
9.366,-0.112
9.367,-0.117
9.368,-0.102
9.369,-0.104
9.37,-0.107
9.371,-0.086
9.372,-0.081
9.373,-0.081
9.374,-0.076
9.375,-0.102
9.376,-0.113
9.377,-0.085
9.378,-0.086
9.379,-0.101
9.38,-0.137
9.381,-0.132
9.382,-0.07
9.383,-0.071
9.384,-0.1
9.385,-0.091
9.386,-0.089
9.387,-0.123
9.388,-0.103
9.389,-0.102
9.39,-0.114
9.391,-0.058
9.392,-0.059
9.393,-0.086
9.394,-0.096
9.395,-0.098
9.396,-0.081
9.397,-0.069
9.398,-0.084
9.399,-0.095
9.4,-0.079
9.401,-0.072
9.402,-0.072
9.403,-0.076
9.404,-0.089
9.405,-0.1
9.406,-0.114
9.407,-0.128
9.408,-0.136
9.409,-0.15
9.41,-0.166
9.411,-0.16
9.412,-0.158
9.413,-0.169
9.414,-0.192
9.415,-0.198
9.416,-0.2
9.417,-0.216
9.418,-0.219
9.419,-0.233
9.42,-0.253
9.421,-0.265
9.422,-0.273
9.423,-0.279
9.424,-0.277
9.425,-0.243
9.426,-0.218
9.427,-0.205
9.428,-0.185
9.429,-0.153
9.43,-0.114
9.431,-0.072
9.432,-0.034
9.433,-0.018
9.434,0.033
9.435,0.087
9.436,0.118
9.437,0.162
9.438,0.201
9.439,0.272
9.44,0.329
9.441,0.361
9.442,0.379
9.443,0.377
9.444,0.396
9.445,0.4
9.446,0.37
9.447,0.36
9.448,0.413
9.449,0.439
9.45,0.439
9.451,0.43
9.452,0.395
9.453,0.352
9.454,0.315
9.455,0.307
9.456,0.294
9.457,0.267
9.458,0.269
9.459,0.29
9.46,0.279
9.461,0.26
9.462,0.255
9.463,0.241
9.464,0.215
9.465,0.201
9.466,0.193
9.467,0.18
9.468,0.163
9.469,0.127
9.47,0.107
9.471,0.116
9.472,0.087
9.473,0.07
9.474,0.086
9.475,0.063
9.476,0.018
9.477,-0.007
9.478,-0.025
9.479,-0.052
9.48,-0.084
9.481,-0.117
9.482,-0.151
9.483,-0.163
9.484,-0.172
9.485,-0.206
